HR
0.8173828125000001
0.7895210745736404
0.8588225684614699
0.8263786309100624
0.8342348950282671
0.8680121631532467
0.855270481498984
0.8701171875000001
0.8833683330535007
0.8750253498828646
0.8916406191715475
0.8911381855954463
0.8807924824481641
0.8920317012282843
0.8789062499999998
0.8613454961716145
0.860236233078173
0.8381790516892326
0.8250455596256793
0.8312862308155805
0.8193736660186622
0.80859375
0.8040802057690654
0.7946876678132186
0.8029875813389064
0.8163300222407968
0.8202014474307976
0.832041370540716
0.8437500000000003
0.8495787847208562
0.8571449993636732
0.8622121911971156
0.8686711273568047
0.8726295866981799
0.8675423644775925
0.8613281250000004
0.8493305587327709
0.8395813536847351
0.8452981651880773
0.845215182742354
0.8403100856765531
0.8474040137793001
0.8525390624999999
0.8621090705407447
0.8817700796350079
0.8877559004479094
0.8933134185161294
0.9103954009234324
0.9121638057974663
0.9052734375000007
0.9060272811272855
0.9013836179476247
0.8961176849629221
0.8968110422095767
0.8918872290530973
0.8862291586766908
0.8876953125000001
0.8929413628662304
0.9037243748755416
0.9161355409492599
0.9221220094729627
0.926880040700817
0.9350054469222219
0.9404296875000009
0.940818848002691
0.9399422991079148
0.9409792418641961
0.9474009149673576
0.9556158743657215
0.9590714330651057
0.966796875000001
0.9809477171497852
0.9854215806133738
0.9845437056654515
0.9853661685195801
0.9747673325846762
0.9644047701573066
0.966796875
0.9617804083560423
0.9568330294024774
0.9702436342061899
0.9828318330061409
0.9924239041114347
1.0078085136526118
1.0107421875000007
1.0080608406984288
1.0169500675419234
1.018503752274462
1.011254683936139
1.0119067704308764
1.0068970385559861
0.9931640625000006
0.9911663072176221
0.9948287145077683
0.992862154147666
0.9991293990748847
1.013821646254975
1.021702815696109
1.0283203125000004
1.040835143632149
1.0529572388462634
1.0664341993564594
1.0794048420087201
1.0853510194307963
1.0946765066769573
1.1074218750000007
1.1089431819912565
1.1062150618769642
1.1077783683713758
1.1076383591505918
1.1072550347323047
1.1071972018927685
1.1074218750000004
1.1135157429900382
1.117918098894433
1.1156918535534488
1.1158216720137921
1.1168812007764937
1.1158111574802765
1.1162109375000004
1.1163251767668179
1.1163149087218813
1.1159912586204865
1.1156208974633521
1.1212367979918514
1.1259317156031565
1.1250000000000002
1.1304016793295317
1.136462831088013
1.1325237681371307
1.1263958671989438
1.1163536960204066
1.1023169125831478
1.0986328125000002
1.1000954695693865
1.0944830151273088
1.0893612713507095
1.0897944476507975
1.087056630715208
1.0757639393087939
1.0634765625000002
1.0568407708273955
1.050909521413906
1.0448560100454674
1.0389597843366989
1.0270567162289963
1.0160588287546293
1.0107421875000009
0.9994507588140753
0.9844820113053773
0.9734765533237064
0.9608565474613859
0.9471912257635509
0.9366941472824861
0.9316406250000008
0.9322154214263513
0.9283034197260721
0.9221682801647216
0.922838781235662
0.918958892939775
0.9122513784472456
0.9140625000000001
0.9100050338471769
0.8988405018854984
0.8967890622119093
0.8971604787654494
0.8918848641776542
0.8848387040981008
0.8789062500000006
0.878286407417227
0.8791255893087414
0.8793113965384186
0.885907665818751
0.8934990239154498
0.898734745874389
0.9052734375000006
0.9061421333670787
0.9050675127425201
0.9044140642053538
0.8911788170858127
0.8786436187205467
0.8803922381430155
0.87890625
0.8765812253262528
0.8841300182466862
0.8876469263815289
0.8871057965675716
0.8924316097246668
0.8988926745151796
0.9052734375000003
0.9119154096773546
0.9172892351674775
0.9243801266319056
0.9306936495505751
0.9358530380329023
0.9437762262284634
0.94921875
0.9494664086257911
0.9491018302753643
0.9492523601260723
0.9492736918299131
0.9489474451915619
0.9497069540503306
0.9492187500000009
0.942888128759747
0.9392075828752856
0.9403476462122213
0.9337319573118835
0.9250838386383781
0.9213479859903473
0.9140625000000006
0.9115499337029426
0.9190117864355187
0.9233808365470575
0.9293603728119729
0.942231231515764
0.9534566922972608
0.9667968750000013
0.9809253928236561
0.9877646213394209
0.9948957942796167
1.0015831278471028
1.0012879943057889
1.0040046616864855
1.0107421875000004
1.0116638053837685
1.009735525321891
1.0114995976833479
1.0179330306192063
1.0253103520167517
1.0301275683006532
1.0371093750000002
1.0448017013205708
1.0455453118588207
1.0467262328702724
1.0535580591840754
1.0559937308753806
1.053981634997788
1.0546875000000009
1.0551429346492964
1.0541699822252086
1.0549174755038115
1.0549483487545523
1.0538568338500953
1.0562593684480994
1.0634765625000002
1.0752653288689735
1.089719822645995
1.100208515320824
1.1061876767024075
1.112946784965271
1.1171445444517565
1.1162109375
1.116185938469441
1.1143206086226727
1.105384367025973
1.0988680819945458
1.099363926249074
1.0966748955662586
1.0898437500000004
1.088383096623747
1.093215207879858
1.1000630886010128
1.1065498429236917
1.108479074027548
1.1067625495206461
1.1074218750000002
1.1080361590838483
1.1065794205838253
1.1078771220108736
1.1080969397066187
1.102957402942625
1.0950086669305497
1.0810546875000004
1.0665373594032157
1.0608935805921034
1.0520922971071107
1.0386378520075696
1.0363496816261715
1.0358561264548123
1.0283203125000004
1.027007055917037
1.0294452721696021
1.0279661739267787
1.0280861879853258
1.028562237220406
1.0284560418078388
1.0283203125000007
1.022395396974564
1.0175313886916415
1.0202377585089288
1.0202084382737668
1.017730127305522
1.0221273045147803
1.0283203125000004
1.0289357169872886
1.027910333286642
1.0281809319650148
1.021985027820063
1.0084106850146128
0.9991581733559064
0.9931640625000006
0.9858056227262942
0.9844850894347954
0.9835899446973216
0.9766921671067691
0.9745008185162697
0.9759442202586113
0.9755859375000006
0.9760798118017454
0.974059944648708
0.9773243564240844
0.9907755399718148
0.9987343451243968
1.0058614847056875
1.0195312500000004
1.0263147228211704
1.034354681060095
1.0482120975100429
1.0536423550439222
1.065762494106713
1.09191832844583
1.1162109375000007
1.1502885948322663
1.198934794305413
1.2499414651375997
1.3129062389129664
1.3839666046316184
1.4501205560767405
1.5205078125000004
1.5869901825912183
1.636083164878697
1.6779617216944798
1.7098490258387933
1.7223471873239697
1.7204088845792682
1.7050781250000009
1.6764477904209674
1.632374840881135
1.5677329163490556
1.4920667220246224
1.4127009582857641
1.328316255518432
1.2480468749999996
1.1774712240297955
1.1148323745193989
1.0626662934246531
1.0187903453511857
0.9823827111019918
0.9594255133805801
0.94921875
0.94362603606538
0.9335410569688283
0.9206207285647923
0.914634319155187
0.9103486401332287
0.9017747728711509
0.8964843750000004
0.8913048510929577
0.8822195896694126
0.8789127425143426
0.8794035067150214
0.8742983240668465
0.8683370910490671
0.8701171875000004
0.8771098731961791
0.8793741847533606
0.8793524090114027
0.8861460790163898
0.8900982960214738
0.8858613642769906
0.8876953125000004
0.8949430542993496
0.896949078447842
0.8964357471258186
0.896476141656095
0.8965557625125048
0.8962331875762279
0.8964843750000003
0.9023080361929642
0.9075483873402708
0.9043437984715571
0.9041326268940553
0.9112054819559677
0.9146276405541746
0.9140625000000006
0.9139785954281298
0.9141883370181716
0.9139214147502039
0.9136462367103698
0.9184165680116466
0.9246960418039996
0.9228515625000006
0.9210785864535991
0.9270729525985669
0.9322564850534393
0.9322585890039702
0.9270539309032974
0.9211210432968814
0.9228515625000007
0.9243242832242795
0.9206608723142433
0.9243662519482334
0.9312107955944636
0.930999182287564
0.9337460013269587
0.9404296875000006
0.9407664382654723
0.94239095419203
0.9508072659446577
0.9508785179676709
0.9417778446406986
0.9423879115929524
0.9492187500000003
0.9491158108390495
0.9521272480177585
0.9588623981278211
0.9582062646265382
0.9613678156587929
0.9692558380661046
0.9667968750000003
0.96466021084884
0.9712426535670196
0.9764374739430127
0.9826858391782509
0.9903937875279932
0.9948688088866708
1.0019531250000007
1.0090497282454742
1.013474783547219
1.021255929677337
1.0275468030038024
1.032217098691685
1.0405732925273463
1.0458984375000002
1.0510134462739984
1.06024217666649
1.0634785439820498
1.0631844472649128
1.0645206029586567
1.0622710813490581
1.0634765625000007
1.0706065731376895
1.0724829474185211
1.0727847675759252
1.0793693280757937
1.0868636694619316
1.0916192825153528
1.0986328125000004
1.1111872316707982
1.1216076288968018
1.1257132723120973
1.1320726196250817
1.1397160998572216
1.1445213707964943
1.1513671875000007
1.1531824636360382
1.1490847871438126
1.1525347541865747
1.1529462888881277
1.1437740123011966
1.1448128749603226
1.1513671875000007
1.1508011125144368
1.154942276407017
1.1606741255502389
1.159970089830626
1.1645380559427387
1.1703467062028208
1.1689453125000007
1.173421581897421
1.1836430638034405
1.1864583816804612
1.1861133770362695
1.1902995540057093
1.199752987514783
1.2128906250000007
1.2209574757526063
1.221626606947421
1.2215276867511957
1.2153949190814555
1.2015454462750788
1.192850193325922
1.1865234375000004
1.1738059203085476
1.1640489733773773
1.1590671169137126
1.1524146998440747
1.1501751665239983
1.1519392541353957
1.1513671875000007
1.1515493540222603
1.1490769100828153
1.1408539960385342
1.1346702799069495
1.1294700096977806
1.1220116237687152
1.1162109375000007
1.1102421404321918
1.1034155176647458
1.0973739894456356
1.0908298031410757
1.088645372707845
1.0905010252063938
1.0898437500000009
1.0898202842612934
1.087883218846407
1.0791454634367716
1.0729102951798148
1.0686577218607787
1.05964609826469
1.0546875
1.0552910983406463
1.0518750847048792
1.0443053389016514
1.0378263822870315
1.036621141721333
1.0363545776807248
1.0283203125000004
1.0202284596368796
1.0201925397667435
1.0186505952107339
1.0119337107471629
1.0088027100051786
1.0132337323873928
1.0195312500000009
1.0203487081641307
1.0187792645990132
1.0198057476967057
1.0197643103690863
1.0190960429509215
1.0197871274488306
1.0195312500000004
1.019839555643185
1.0169929878972186
1.0094461037908418
1.0096244895781743
1.0135901617382546
1.0070565397084679
1.0019531250000007
1.0082142790135802
1.011863432914016
1.0108579033796914
1.0173812678816774
1.0267639441885568
1.0278302688279548
1.0283203125000002
1.0350950007476087
1.0376138759542006
1.0376273822313304
1.0445304086445864
1.0474303462971248
1.0460004840974546
1.0546875000000004
1.063246157721994
1.0622941544532352
1.0645711034511887
1.0712766394408177
1.073763409434631
1.0701262235694327
1.0634765625000002
1.0622835271412399
1.064734013057623
1.0629499957345534
1.0629467970237787
1.0647538396493736
1.0622644067461742
1.0634765625000007
1.0699677341469613
1.0754411502190284
1.0827084259664745
1.0892547073316325
1.0901805808446074
1.0898187409441678
1.08984375
1.0896960071015935
1.090072416057743
1.08973045322993
1.089724628435652
1.0901139583259654
1.0896334906615752
1.0898437500000004
1.0900039208359726
1.0897238748824443
1.089819685388196
1.0895956746958475
1.0934699409970443
1.1021975922415763
1.1074218750000009
1.1076634173224569
1.1072187967011695
1.1075422856340917
1.107638732749952
1.106422322783782
1.109573278751368
1.116210937500001
1.1164966978574093
1.1184602604326137
1.1262339853802725
1.1257050938333395
1.126666419758592
1.1389790987299344
1.1425781250000004
1.1401244743808139
1.1500145213120847
1.1619428271307506
1.16780735211758
1.17428406474993
1.1789766037153977
1.1777343750000007
1.1718460124804375
1.1648431207063414
1.1590059133820851
1.152674543603256
1.1464240307005904
1.1396968638696738
1.1337890625000007
1.133869751114609
1.1309189782728406
1.1244246669836577
1.131435939050865
1.1379202111634723
1.1304784276108975
1.1337890625000004
1.1433548564141367
1.13757650686008
1.1340998654546415
1.1351255061942147
1.1233103951242323
1.1144746113661674
1.1162109375000004
1.1112833144573835
1.102517623414919
1.097746782706368
1.0913783505557186
1.084363492712856
1.0787307896202607
1.0722656250000004
1.0707881975153648
1.074330346066543
1.0708174137660433
1.0639587791807137
1.0640778492669585
1.0612980906106055
1.0546875000000004
1.0548699028931428
1.051434557415767
1.0456024359155787
1.052740355994718
1.0575168033315312
1.0529301512129143
1.054687500000001
1.055836154510084
1.0537467327269037
1.0545628360170192
1.0477804555961892
1.0428421607224625
1.048037793762686
1.0458984375000007
1.0440083301739158
1.0480629208929078
1.0452713999068832
1.0516302179892185
1.0642901517288264
1.0607271882037155
1.0634765625000004
1.0783835751797313
1.0807128358104279
1.0821991277795782
1.0892455006105728
1.0894037423607588
1.0916810705201212
1.0986328125000002
1.1089579715151654
1.1303288204267903
1.1567871141006167
1.187998942375092
1.225858321998482
1.263189458086263
1.3095703125000004
1.3619123212492827
1.4044980828064515
1.4519279404582848
1.5032857787309724
1.538367216760832
1.5674866193757482
1.5908203125
1.5938540344471739
1.5832069120639698
1.5579154684157173
1.5195111520724085
1.4799394956953906
1.4254920295806512
1.3535156250000004
1.2840753962633666
1.214633430852494
1.1480380058819006
1.0984758324188069
1.0547368553855365
1.0126052414195983
0.9843750000000002
0.9650838804142676
0.948794111288504
0.9389114273915156
0.932654136600765
0.9297579204530385
0.9342176689440258
0.9404296875000003
0.9407765374677761
0.9420486028044582
0.9513667358540925
0.9578869460567213
0.9570145743368778
0.9601280786320142
0.9667968750000006
0.9725849431602634
0.9805120270270551
0.9845371261434447
0.9839712495830749
0.9889782660941747
0.9946851017365779
0.9931640625000008
0.9918240480794754
0.9968616014621655
1.0027398937324383
1.0025043803306084
1.000816928228114
1.0029222104060016
1.001953125
1.000320345476105
1.006298236695353
1.0111238504238813
1.0107603848516546
1.0111724098280717
1.0099938770651793
1.0107421875000004
1.017379847051739
1.0205650185305495
1.019306535100329
1.0194274924716455
1.0195911082399054
1.0195812046530686
1.0195312500000004
1.019388974325815
1.0196057657273905
1.0198183805904515
1.0261865465937425
1.0357434694587704
1.0363306240510697
1.0371093750000002
1.0443892716402845
1.0456444479206908
1.0468161572031014
1.053793013064852
1.0549382037572919
1.056072811707697
1.0634765625000004
1.0693488282761723
1.0790634489995283
1.0919894249613025
1.0978090718129971
1.1036433454203105
1.107763164472007
1.0986328125000009
1.0899299824893784
1.0912250562652022
1.088615702524239
1.0818072488980308
1.08062871153332
1.0809018551741498
1.0810546875000004
1.0866992982163475
1.0940147857909703
1.099869119528514
1.1064585067495707
1.1083369765411344
1.1078898426907113
1.116210937500001
1.1245095667488851
1.1242359930896482
1.1255998874783693
1.1259719928155574
1.11921221428419
1.1156880312494541
1.1162109375000004
1.1158901275160449
1.116949040646807
1.1156886834510726
1.1153097484074708
1.1219331678503022
1.1253997074939135
1.1250000000000007
1.1306002240545259
1.1379424533649798
1.1437954156222558
1.150188687119714
1.155927264350065
1.1633842492362796
1.1689453125000004
1.168633078687308
1.1716494780177669
1.1791971751065413
1.1852901305734294
1.1920229052000104
1.1962571447626498
1.1953125000000004
1.1951020838546451
1.1951820736921526
1.1958106115333993
1.2023073617746882
1.2104022925413889
1.2134466794837533
1.2128906250000007
1.212620627435868
1.2132545471077427
1.2126948017982957
1.2126383167184462
1.213666134558586
1.2119569856767005
1.2128906250000009
1.219743759344008
1.2221874519855045
1.2221311519650864
1.2289069848620284
1.2331447310423609
1.2274456491328272
1.2216796875000004
1.221308677527539
1.2219085920161659
1.2216329682190468
1.2216927814640275
1.2213498187448972
1.2229496931586297
1.2304687500000002
1.2377376377452582
1.241593783510331
1.2501513464668597
1.2569973628046438
1.2519344033037565
1.2471146967848952
1.2480468750000002
1.2433300763225295
1.232104499449855
1.2189587704346385
1.2061568353967662
1.198258702426479
1.1932258496882047
1.1865234375000004
1.1797060395858296
1.1763517199027838
1.178367752020208
1.1786682951011505
1.1720354810273859
1.1684794056748355
1.1689453125
1.163457573311387
1.1558595400553893
1.1502028829783757
1.143772195619628
1.1382495724453014
1.129402851713386
1.1162109375
1.108828544066989
1.1046500863458628
1.097039141748522
1.0908576989625183
1.0850108860147802
1.0794058841878955
1.0810546875000002
1.0827948236151852
1.0767471453233464
1.0717967321094635
1.0720809692506292
1.072452319650087
1.0721833483070538
1.0722656250000007
1.0725892354087792
1.0701114643400416
1.0614952539264606
1.0549179196884888
1.0555969639429905
1.052388327912098
1.0458984375000004
1.0459801568848561
1.0429608623709639
1.036535978900367
1.0433692528688823
1.053377534955338
1.0552900063388435
1.0634765625000009
1.0722994991948627
1.070411336680359
1.0738739146806426
1.0810142123953237
1.0763892064619647
1.0711446936742746
1.0722656250000009
1.0723348069147491
1.0725589395357353
1.0719378197722855
1.071571124157449
1.0774402991041858
1.0820636052195498
1.0810546875000009
1.0808596962510428
1.081034749778872
1.0811778120821218
1.0813226716677353
1.0798865369634354
1.0833361767170206
1.0898437500000004
1.0904256840896422
1.0896459569920802
1.0897072614629
1.0893205830852015
1.0947009684198337
1.099763696113825
1.0986328125000002
1.1033011682713005
1.1130777656905984
1.1162969551308615
1.116107115322724
1.1166008870179747
1.115751530959137
1.1162109375000007
1.1216321594902368
1.1300262557854135
1.1339894852224175
1.1334746265250926
1.1381132654109472
1.144368803457413
1.1425781250000009
1.1409104063635762
1.1466983832415913
1.1519716555363595
1.1517695948060171
1.1503005463029041
1.1532679261007548
1.1601562500000007
1.1661408809729144
1.1752181698948452
1.189145788828822
1.1954488934785537
1.193860152361614
1.1978706776536725
1.2041015625000007
1.204468697836021
1.2041188129917766
1.2038926437130673
1.2035284630176895
1.2090224756374126
1.2140074802234129
1.2128906250000004
1.2175079275329872
1.2274269259143105
1.2305123425817794
1.2303484078371816
1.2306364259888034
1.2312172313742509
1.2392578125000004
1.2476283371221608
1.246864481685711
1.2492631858979082
1.256142233981427
1.256962969639873
1.2573920225518311
1.2568359375000004
1.2500522626032833
1.247590025774397
1.2475028071671717
1.240622399871665
1.237500191703022
1.2402786292672674
1.2392578125
1.238557444923602
1.2400464581482136
1.2389198745649865
1.2388975014237738
1.2403160700955218
1.2374389063527929
1.2304687500000002
1.2234765076349587
1.2206563121935432
1.2220532463264058
1.222192365000445
1.2176188028049977
1.2095232012154782
1.2041015625000004
1.2043919154495284
1.2013155242924547
1.194218351273118
1.1945175434972393
1.1968935162277956
1.1940549804998766
1.1953125000000004
1.196950595370945
1.1924949906782234
1.1976143584113654
1.2111891638502472
1.2142131054584882
1.2127643696278247
1.2128906250000007
1.206330991351095
1.2051306674541544
1.2146582785993068
1.2145113313508125
1.2064020729605032
1.2029647161346209
1.1953125000000004
1.1866429130684677
1.189774619825205
1.1963842672634544
1.2022454727959129
1.2140627863208495
1.2254836589061282
1.2304687500000004
1.2356007915279061
1.2464792348119302
1.2589954289204126
1.2650611945285233
1.2690797802416174
1.2784562912194226
1.2832031250000004
1.2817142698704167
1.2893607678762926
1.303410300084542
1.315396701523484
1.3355349925981403
1.3664699466591268
1.3974609375000007
1.427936572454681
1.4632914076701868
1.501858615366095
1.5394686266619122
1.5768961690280188
1.614052128333706
1.6435546875000002
1.6633041470087644
1.678983773356201
1.6886575843613798
1.6885256699508149
1.6801339897220782
1.6601767410914545
1.6259765625000013
1.582969107757175
1.535452440922359
1.4832840383228854
1.4265067281872499
1.3719467891110815
1.3289959735963903
1.2919921875000004
1.2529671067815162
1.2240551984966985
1.2107976958323876
1.1982029575135638
1.1867579526247487
1.1889857078818729
1.1953125000000013
1.1950630154703132
1.1981793723023062
1.2051334726029586
1.204838977636438
1.2024666306427292
1.2062883646900926
1.2128906250000004
1.2193872198590747
1.2248145514812485
1.2325263546987224
1.245597974387406
1.2544380223501488
1.258885620006214
1.2656250000000007
1.2616186085297008
1.252169685930226
1.25927547546761
1.2660991642125405
1.2627834189432305
1.2698468479681129
1.274414062500001
1.266409412907095
1.2693531201426425
1.274196354323607
1.2667115736680077
1.2680230344128853
1.2782184783252803
1.2832031250000007
1.288971607958372
1.296054134409816
1.3020570914673497
1.3085214902287796
1.3134469791435468
1.3232648364656863
1.3359375000000009
1.3419628228459362
1.3517469788265697
1.3639346781190627
1.3633048812638078
1.3606862335504002
1.363279248359872
1.3623046875000007
1.3620697099497774
1.3605665996608567
1.3515001040254968
1.345149787380032
1.344192552497371
1.3461935539751593
1.353515625
1.3554588164054813
1.35098121016897
1.3551207723734644
1.36191199858326
1.3617300028916641
1.3641346172241493
1.3710937500000009
1.3772179183930828
1.3843014364964397
1.3891224178979749
1.3886622632442172
1.3919014352460255
1.401361061783848
1.4062500000000004
1.4056319021313837
1.4091909782045147
1.4164574741723621
1.4226275237368655
1.4289163614382707
1.4349085907289771
1.4414062500000007
1.4486611483184846
1.4503841943783835
1.4507782659370665
1.457600542602462
1.4609040976452057
1.457721654047927
1.4589843750000004
1.4605026766958675
1.455054337796557
1.4494511283188634
1.4494462602530067
1.4550845362056255
1.460472368287163
1.4589843750000004
1.4575578455326235
1.4626389983889614
1.468944564082254
1.4751657991178835
1.4819798375118565
1.4874930380940627
1.4941406250000007
1.5009245709001604
1.5059130646991683
1.5134492724072661
1.5200385428917083
1.5202551349413165
1.52201191121135
1.529296875
1.5359321426766772
1.5415433111116124
1.5482288602563667
1.5544770748383083
1.5605932507857914
1.5669798678136109
1.5732421875
1.5798749959837952
1.5836230300159289
1.5811063114604527
1.5748324088749142
1.5646876391797986
1.5492048339810252
1.5380859375000004
1.5377203952412943
1.5362144096738852
1.527369379269498
1.5210020432855622
1.5199412549135307
1.5217702735246992
1.5292968750000007
1.5370204619422607
1.5380072675065213
1.5383819516127688
1.5387461829061737
1.5330334337408216
1.5281422175079804
1.529296875
1.5297544179966667
1.5288965758722428
1.5294150546859866
1.5293536751945132
1.529354944500072
1.5289822432008258
1.5292968750000004
1.5353240671960087
1.5399560206893823
1.5374807143682312
1.5377034051380492
1.536198286249092
1.5232293860301154
1.5117187500000007
1.5059364465350358
1.4980204920351385
1.493649366481037
1.4878396515913725
1.4734389557904244
1.4669712390083423
1.4677734375
1.4614192339071352
1.4581859219444746
1.4585210806849223
1.4515528702448426
1.4488342971166548
1.4498117613491013
1.4414062500000002
1.43382929074912
1.4302798164007209
1.4219879801085646
1.4157403336454402
1.4112309482067424
1.4027632526138765
1.3974609375000004
1.3922622232644504
1.3833887204236557
1.3794512289582221
1.3735297818716738
1.359718411017222
1.3511808854042533
1.3447265625000002
1.3313925412228311
1.325056894626206
1.3273384493473168
1.3207666323590148
1.3105879506949267
1.3105045796720731
1.3095703125000004
1.301980139762254
1.3031723409121294
1.3105964350427268
1.309998462990934
1.3119886219238088
1.3228046813858165
1.3271484375000002
1.3264148105035165
1.3283987633766368
1.3264169617172903
1.3260546894840675
1.3332827408410428
1.336002576066032
1.3359375000000007
1.3420156126243703
1.3479409331077803
1.355666698027844
1.3689289929625799
1.3741821452975438
1.3679945338992194
1.3623046875
1.3616510322366935
1.3633077489858987
1.361380184215416
1.3546359174082157
1.352105927299038
1.3543967146590532
1.3535156250000004
1.3524215803024546
1.356745318273121
1.3636863369194618
1.369945921366505
1.3758037359254789
1.3828244392693068
1.3886718750000002
1.3892643873096255
1.38822884787305
1.388754957695984
1.3885208616874902
1.3920640396913733
1.401253965321008
1.4062500000000004
1.40607015128647
1.4068204956063646
1.4058264486934968
1.4054791292778264
1.4116007697775563
1.4158054442749262
1.4150390625000009
1.4201069865205325
1.4287798318366165
1.433402071400978
1.4396879688401898
1.4475545410475024
1.451591141109311
1.4589843750000004
1.4719689473182216
1.4815742277484762
1.4858857692122411
1.4858322943533964
1.4838794578841192
1.4877905294562512
1.494140625
1.4947091724724026
1.4938503555067386
1.4941137501602975
1.4938414598675964
1.4979545923172397
1.5063028261861375
1.5117187500000002
1.512196675852027
1.511218593487373
1.511958897314316
1.5120133968788056
1.5108340788245291
1.5127641007536785
1.5117187500000002
1.5046533597237597
1.5028062616109652
1.5022187968729566
1.4952798263289322
1.493241282551768
1.4933841408019353
1.4853515625000004
1.478266500767149
1.473346638093933
1.466734766840429
1.4669755729786575
1.4695706504251123
1.4654848619259537
1.4589843749999998
1.4521986947812036
1.4492774857457198
1.4500283023181646
1.4434357197826506
1.434972053957622
1.4310006251314797
1.4238281249999998
1.4217316519720322
1.4265702530126314
1.422163711109152
1.415540788318553
1.4124848843612596
1.4001882152222327
1.3886718750000004
1.388610299209983
1.3862528293076586
1.3782500042594408
1.3719110526210971
1.369871346042717
1.3721772857523111
1.3710937500000004
1.3646762966698955
1.3591130732297634
1.3518252279647467
1.3452194613822002
1.3448076254171677
1.3441237000268866
1.3447265625
1.351287162264949
1.3546312314571582
1.3532592167947548
1.353385416914759
1.3536174131250782
1.3535559901330536
1.3535156250000002
1.3532474279030098
1.3540198128525511
1.3531907112758605
1.3530355524465822
1.3552596884447594
1.3505603648791513
1.3447265625000007
1.350444240911261
1.3552422071512782
1.3533711200524217
1.3598066024745317
1.3727375442309537
1.3852625983532765
1.4062499999999998
1.4368775637792897
1.4712701346938615
1.5115036181946206
1.5557138423614643
1.599022542151778
1.645106400883335
1.6962890625000013
1.7473036326544955
1.7941046699134702
1.836185967921856
1.8739365150122838
1.9046378582309746
1.919620767985943
1.9160156250000007
1.8998840792740674
1.8683114062605173
1.8164690604994314
1.7535418142981916
1.6829383654584378
1.6011361647642688
1.5205078125000002
1.4504811066599557
1.3843686873464234
1.3252522118798786
1.281595462807941
1.2482920315494324
1.2194466778827402
1.1953125
1.1755920593093507
1.1603945819149837
1.1494985857878803
1.1431275191328842
1.1424209579412066
1.1415711126739314
1.1337890625
1.1259037373443601
1.1254689998627112
1.124153251822973
1.1173385028160598
1.1149045773878146
1.1168811556172389
1.1162109375
1.1162606882596187
1.1140141388167843
1.1059193925357926
1.105900796858414
1.1141459156971452
1.116063099313079
1.1162109375000004
1.117564206392085
1.112143427846818
1.1069229588885559
1.1072721973873418
1.1073834140930159
1.1076625997866696
1.1074218750000004
1.106746438503186
1.1087529840716994
1.1062678852764203
1.0994484846565145
1.0981065353610233
1.0985754832589127
1.0986328125000002
1.0997868182990826
1.0945440293657291
1.0897784426369295
1.0966531645820015
1.1046746379426342
1.10949881591114
1.1162109375000004
1.117580828498113
1.114664066807443
1.1169595487802253
1.1172471271644384
1.1103290915088935
1.1070836875640215
1.1074218750000004
1.10149198666668
1.096847688586758
1.0988872984101077
1.0924393042673948
1.0813832315818739
1.0828413380376738
1.0810546875000004
1.0671377506640314
1.0626158424283116
1.0628162230477582
1.0555870042612236
1.0573056496810007
1.0671485692466496
1.0722656250000007
1.0785493102531984
1.0824204358603837
1.081053721484244
1.0876237901720625
1.0970140225042275
1.0985303245639728
1.0986328125000004
1.0989974003845233
1.0981933258785705
1.0988095565394724
1.098782857497272
1.0983740749163655
1.0987561610293792
1.0986328125000004
1.0988234836694835
1.0979326601209274
1.0995117549877915
1.1063718373816158
1.10815955971845
1.1084163078529836
1.1162109375000004
1.1177591016326094
1.1164233820042306
1.1277591771450413
1.134291723272263
1.131278711577497
1.1373638365781908
1.1425781250000002
1.1411951444129778
1.1470941651828692
1.1514741767303196
1.150756172447283
1.156790744036136
1.1605856097849572
1.1601562500000004
1.1664616552473481
1.1699191175608403
1.1692709654944489
1.1761432705253159
1.180079453617834
1.1760742970358598
1.1777343750000004
1.1842542634269884
1.1898907140626003
1.1967375269109304
1.2029690098911396
1.2091447704851015
1.2143771428528982
1.2128906250000004
1.2116174411817664
1.2148265376944754
1.211498776444388
1.2046745694612457
1.204323017166604
1.2025243303781306
1.1953125
1.188964824677924
1.1824044140362369
1.1771043617779
1.1773794749600777
1.1782773709363548
1.1774133372526383
1.177734375
1.1779208060145032
1.1775629524463127
1.1777853281779282
1.177759193802694
1.1777457376936786
1.1776568260776619
1.177734375
1.178069599269393
1.1769161780320412
1.178621082647086
1.185399484205823
1.1878391510172142
1.1858868745765476
1.1865234375000004
1.1822505197855997
1.1696349813571607
1.1583000241876487
1.1520029385222552
1.1509547323003677
1.1505622203265835
1.1425781250000002
1.1348445213258367
1.1322054071536858
1.1222248434073674
1.1090924745712174
1.1030970018826152
1.093960794915152
1.0810546874999993
1.0742885772230826
1.0683689656605864
1.062858033194357
1.063348480463971
1.0606300072188537
1.0497780894179678
1.037109375000001
1.0241860732703167
1.014382529888474
1.0099756221885337
1.0036926240741721
0.9955804962678747
0.992764404591097
0.9931640625
0.9931179516169387
0.9932913570732548
0.9931078916864303
0.9932135566386292
0.990516564324301
0.9786764231401563
0.9667968750000003
0.9661664783005305
0.9651094664550586
0.9560897307424743
0.9499548105122897
0.9450087590007119
0.9382292800479718
0.9404296875000008
0.9430186292082778
0.9345957902072558
0.9324227247264351
0.9395698400008875
0.940528543626438
0.9419192437706623
0.9492187500000003
0.9553492236667263
0.962663045525266
0.9669944802735836
0.9662987976348085
0.9721845546985814
0.9750686451770093
0.9667968750000003
0.9654950302934195
0.9658535560889291
0.9560459798937514
0.9560782468832303
0.9656236200446776
0.9658418510503222
0.9667968750000003
0.9739459199100807
0.9759673139908185
0.9756549774999713
0.9757859412432986
0.9749065371499334
0.9763272706523308
0.9755859375000001
0.9740189004904826
0.9799603888447411
0.9846548359698951
0.9840521207739772
0.9887106761973371
0.9956091863182746
1.0019531250000007
1.0143168218574745
1.024972230414716
1.0291097970180396
1.0356691689325614
1.039618936213736
1.0343053001538247
1.0283203125000004
1.0226619806351311
1.0148878719106236
1.009938589410141
1.0037628379016341
0.9952161757025056
0.9932486806069634
0.9931640625000008
0.9917775549517303
0.9974484027695196
1.00220200726356
1.0014783939242906
1.0072745470789775
1.0103395617157442
1.0019531250000002
0.9999983085422901
1.0039753376317644
1.0010942331304375
1.000938402175839
1.007231544879898
1.0129442142360923
1.0195312500000007
1.0257162226212218
1.0342428716312622
1.0487167008194895
1.0550789421470002
1.052352209815576
1.058966375780232
1.072265625
1.079491143660861
1.083740318664006
1.091950425592155
1.1048513863048417
1.114744073839644
1.1159811918521576
1.1162109375000004
1.1173121097029253
1.1127183212439984
1.106310006514223
1.1003781418010525
1.0890411037153314
1.0768482236751704
1.0722656250000007
1.0679409108618492
1.0545749190166558
1.04542639313861
1.0526489216509645
1.0579220757799856
1.0522127493296007
1.0546875
1.0630491308114012
1.060521318946669
1.0534340203247043
1.0473447013984134
1.0401004230945536
1.0355805596187557
1.0283203125000007
1.0151957360026675
1.006212949007754
1.0007868987269029
0.9943574049642502
0.9885932301288639
0.9811596152562991
0.9755859375000002
0.9758281341904089
0.9730555186356544
0.965176183034505
0.9588554659354015
0.9564559347866318
0.9603523478834285
0.9667968749999999
0.9676596846737183
0.9658493360046667
0.9675028856728877
0.9738551855630755
0.9822095108507551
0.9835559363702414
0.9755859375000003
0.9681209169773471
0.9662726204156566
0.9669392675667601
0.9669273195703004
0.9664623245640018
0.9671425984314235
0.966796875
0.9659346943346198
0.9698650721743177
0.9769859344767508
0.9831877154004962
0.9893391898068508
0.9956853065211398
1.0019531250000002
1.0079916567559835
1.0165306539465322
1.031632039530374
1.0445069992731622
1.0497425941778857
1.0597757538986479
1.0722656250000002
1.077828016444703
1.090158159893051
1.111632784854562
1.1298714333035498
1.1553514614464773
1.1936857411342439
1.2304687500000002
1.266779716955814
1.3093588611849851
1.353527084190941
1.3975900137938353
1.4384755321605782
1.4708787310078562
1.4941406250000002
1.5034566781581178
1.4997474406109645
1.4923137366500083
1.4740075375757646
1.4350590997365174
1.3867347577023392
1.3359375000000007
1.2751758861293225
1.2063084982386354
1.1379709880478373
1.0748502754811728
1.0244538006911301
0.9890103959503221
0.9580078125000004
0.9302202941658197
0.9168980466613637
0.913292561785997
0.9066371015552507
0.9032324518965051
0.9067495440332395
0.9052734374999998
0.9031971643441444
0.9103146456962361
0.9139562166818448
0.9130584935536388
0.9235312677595
0.9344895202393041
0.9316406250000008
0.9297551594627698
0.9354863979541487
0.9419236645541569
0.9545669100074885
0.9706971051134583
0.9763045559673469
0.9755859375000006
0.9807273492512713
0.9895851008733401
0.9933290815241708
0.9928475856691825
0.997433925538953
1.0038265124982975
1.0019531250000002
1.0001471845677805
1.0062498897584131
1.011298679720285
1.0112588328494017
1.0065455081596077
0.9996502285989917
1.0019531250000007
1.009704384588202
1.010128570578323
1.0117451197056306
1.0186548932187554
1.0199027266225822
1.0206544385462684
1.0283203125
1.0352335675576108
1.0402347064610957
1.047407322874545
1.0536815761834646
1.0590769527023847
1.066678967449498
1.0722656250000004
1.0725048506903132
1.0725081642370673
1.071637235544825
1.0649007053251764
1.0612795329302833
1.065186494163641
1.0634765625000002
1.056334530976377
1.0539595231863679
1.0551811919475502
1.0615092003577593
1.0705063418692604
1.0718918123303114
1.0722656250000002
1.078431338025926
1.0846513526607957
1.091028201010686
1.0912669787486957
1.082709895383436
1.0828753657610355
1.0898437500000002
1.0898524714386169
1.092382813951859
1.100090023053616
1.1061061762751967
1.1133232121702141
1.1165435522461118
1.1162109375000007
1.122321844794069
1.1265225705247823
1.1246364151982777
1.124869624728653
1.1246250865468117
1.1266854304171372
1.1337890625000002
1.1349821867064742
1.1327345357281675
1.1341370446452117
1.1340415972146087
1.1334218869435717
1.1339087433519355
1.1337890625000002
1.13422448615537
1.132456879552704
1.1353901639214932
1.1487861146603167
1.157520635915062
1.1634328951151753
1.177734375
1.1859203774963119
1.1885215798198596
1.1968996822765552
1.1967200000024578
1.191842241022328
1.1994660603861989
1.2041015625000004
1.197491610332791
1.1943957712649211
1.1954915585859478
1.1954287945018764
1.1948761352412909
1.19663335325562
1.2041015625000002
1.211238843558946
1.2155763728798832
1.2234443927989507
1.2297750627471007
1.2340231592477142
1.2432599186103452
1.2480468750000004
1.2468947212053845
1.252043059070188
1.2573138765283207
1.2568969769193414
1.2574061581744682
1.255126916129337
1.248046875
1.2417744199943326
1.235045251841671
1.229882974331763
1.230161846535922
1.2308943757538187
1.2302498376591267
1.2304687500000007
1.2305363068850759
1.2304569437292676
1.2304429134116928
1.2304095964886563
1.2306919532747145
1.2301891028777274
1.2304687500000004
1.231299887163712
1.2274110876267854
1.2202942734225435
1.2141257768989842
1.2076753598302672
1.202036590841431
1.1953125000000007
1.1828702415162204
1.1722261892793406
1.1682979941894667
1.1620063566326952
1.1534871065356322
1.1513484854766
1.1513671875000002
1.1458181859876253
1.1381221905210055
1.1328308663583162
1.126612659815788
1.1187605507618799
1.1159122087443574
1.1162109375
1.1108195817895523
1.1028660878982979
1.0976580449209412
1.0913380406675677
1.0843510968287537
1.0788757478864253
1.0722656250000007
1.0657874255575586
1.0597255738967089
1.0538086898044075
1.0539760922002683
1.056471874893723
1.0522207251048565
1.0458984375000007
1.0401811141676267
1.0322604106094777
1.0280065860855245
1.0282872886470624
1.0280909821913047
1.028702805750189
1.0283203125000009
1.027197972796645
1.0320067214580622
1.0378130897341995
1.0375054467681184
1.0364522740462239
1.0376457059857533
1.0371093750000004
1.031681384750195
1.0233586866290538
1.0192191736483838
1.0194726138467831
1.0194095927474272
1.0197725216076396
1.0195312500000002
1.0189920926729261
1.020479427957299
1.0189083427667869
1.0184794612467412
1.025924687428244
1.0271104545660394
1.0195312500000004
1.0185251520592244
1.0200135416189782
1.0198588973335776
1.02644181117202
1.0345835362884594
1.037993822245939
1.0371093750000004
1.0307253661419895
1.0269904418620601
1.0286058867116197
1.0282486736279934
1.0318185757820861
1.0404746098739461
1.0458984375000007
1.0520464982886653
1.0565760983165255
1.054022493368599
1.0540993969337866
1.055924449061956
1.0537207223279517
1.0546875
1.0557403961006742
1.053117439618802
1.0558007208523954
1.0623131312497252
1.068116034795208
1.075129037166271
1.0810546875000004
1.087240181273931
1.0919749434627366
1.0888810922602885
1.088558100346569
1.0965607954221093
1.0973502364996983
1.0898437500000004
1.0880577284792423
1.0938469861927218
1.099328214005211
1.0991109454381738
1.0976482283427282
1.09947874996488
1.0986328125000007
1.0971355216856318
1.1028196815289724
1.1078396876736658
1.1073144017720637
1.110985966744625
1.1197366386497594
1.125
1.1252992474773817
1.1247941807594852
1.1250569005719937
1.1250270143111707
1.1250431627982291
1.124779579180875
1.1250000000000002
1.1306195400131707
1.136665783883399
1.1320995758680412
1.1251569306701878
1.129034640588749
1.1357986710339525
1.1337890625000007
1.1268837274449734
1.1240419008316704
1.1252730246578926
1.1252167210557997
1.1245603383904919
1.1253543486057818
1.1250000000000004
1.124350883123616
1.127546792125762
1.1356372490958713
1.1423919033032732
1.138646857550882
1.1318620373923602
1.1337890625000004
1.1350443663247014
1.1323024158792179
1.1344546120888428
1.134492413037543
1.132024210116775
1.1355066090864587
1.1337890625000007
1.1261757583041816
1.1253255457472107
1.1244743144028246
1.1239831680091361
1.1313222970754204
1.1327578795932698
1.1250000000000004
1.1187155737139491
1.1117913539741147
1.1070543087993645
1.1076052004715764
1.103536462960691
1.0956022664206313
1.08984375
1.0836888098634465
1.0773165841355294
1.0709157365774034
1.0645430604929573
1.0591679288916398
1.0512217952361527
1.0458984375000007
1.0467291419075526
1.0419677242769378
1.0370754392461685
1.0441804170333358
1.0482858180495487
1.0444330290966388
1.0458984375000004
1.0467822091601653
1.046520011021965
1.057456616150476
1.064372051963498
1.0562234744745
1.0579505604987296
1.0722656250000004
1.074150283538476
1.0724503722068368
1.0837379561429046
1.0902175254565745
1.0877052157471179
1.093068235307883
1.0986328125000004
1.0976928384923272
1.1025405488657354
1.1078139185711224
1.1070304737244918
1.1146518502535057
1.1326340701888056
1.1513671875000007
1.1747659201566492
1.2055142593231292
1.2364849677325742
1.2675630430644875
1.3042809253688126
1.3411679766152493
1.3710937500000004
1.401743836377546
1.4333002803533044
1.4531632812864685
1.4655485586340888
1.472393085404565
1.4609789746704271
1.4414062500000007
1.424530244987768
1.3952912888272946
1.3537311089926216
1.3100777539848716
1.2610485798316986
1.2105600030073307
1.1601562500000007
1.1079943590254377
1.0680707664067581
1.0406626675058073
1.0150766933719646
0.9985205530535596
0.9899798045838158
0.9843750000000004
0.9896382234954603
0.9957354608640985
0.9922678950870432
0.9923503450299049
0.9951279303625117
0.9906453129368996
0.9843750000000004
0.978388540903145
0.9715092672314382
0.9656034505822576
0.9590978429945726
0.9564537840265785
0.9591115918487897
0.9580078125000003
0.9564528257023709
0.96214216885178
0.9673258018562078
0.9670231657571075
0.9665917631095939
0.9667397429361796
0.9667968750000007
0.9719004355713106
0.9809790461836687
0.9844207482495789
0.9839111057002733
0.9890291720098463
0.9946913271488179
0.9931640625
0.9917615486013178
0.996957886416819
1.0026930434231602
1.0024577373550951
1.0009105505711893
1.0028670412588865
1.0019531250000004
1.0002792353128442
1.0064836858569468
1.010922781481629
1.010256935895774
1.0157827544637776
1.0203649429588155
1.0195312500000007
1.0248629490633128
1.0326748806652677
1.038340332492483
1.0449917949928256
1.0466538334157738
1.0459100548190057
1.0458984375
1.0396723188132593
1.0359607827974568
1.0368718107954187
1.0299924275866017
1.025856317085961
1.0299443103353019
1.0283203125000004
1.0266007546576925
1.0323713093055589
1.0378798760546193
1.0380126192762458
1.0313064946683212
1.028960785122465
1.0371093750000004
1.0385571909797027
1.0376117130997984
1.0484361460293954
1.0548233812868586
1.0536422181409446
1.055553991482791
1.054687500000001
1.0586815218503176
1.0703342863191858
1.0716163676998174
1.071044318630541
1.0788532833448643
1.0806752057325049
1.0810546875
1.087915083170679
1.0904359788986682
1.0899124119678683
1.0902708836786243
1.0856046573272324
1.0781383020056992
1.0722656250000002
1.0707289157142974
1.0762908799434134
1.0816123448777677
1.081178169206833
1.083681093813516
1.0952803456389126
1.107421875000001
1.1135189546860451
1.1226679397356558
1.1361695449696556
1.142135457583708
1.1460200629556703
1.1550837124661486
1.1601562500000002
1.1650866271688842
1.1747706778049005
1.1775471586800061
1.177019011471935
1.1829692059245225
1.1875869608945329
1.1865234375000007
1.1855343390498159
1.1898867301146134
1.1961620609489674
1.1956941996214443
1.197651595749863
1.2087167385550288
1.2128906250000004
1.2118254182363033
1.2146458764359256
1.2118918839768609
1.2114815106636323
1.2198662953931527
1.220925461490785
1.2216796875000004
1.2292657805575522
1.2296390224374856
1.2317722697819784
1.2390405017593213
1.2346734167793723
1.2296640285372569
1.23046875
1.2239798532041097
1.222779867983778
1.232155955905215
1.2319866395219778
1.2240980474202354
1.2212610847526324
1.2216796875000004
1.221876159165961
1.2213146653254432
1.2219371630814608
1.2220954824936519
1.2200599992963264
1.22456059526857
1.2304687500000002
1.224735009145146
1.2200804006943633
1.2216776823777018
1.2150097568797233
1.2063265726203107
1.2026430218996889
1.1953125
1.1881767230211142
1.183765845597905
1.17604218364143
1.1697594244731837
1.1649902676183521
1.156609762365163
1.1513671875000004
1.1515673678527814
1.1493142623525578
1.1402440594766805
1.1272887664697042
1.1187029346483361
1.1144675102873756
1.1074218750000004
1.100545835045395
1.0955701786295382
1.0882864347052164
1.0820170964511338
1.076670191043485
1.0692733079982484
1.0634765625000007
1.0573461350233582
1.0525249724617323
1.0556393524921706
1.055910615571804
1.0484302208542766
1.0457300491110697
1.0458984375000007
1.0451194745536805
1.0474812467169063
1.0445754345354898
1.0376676123469393
1.03759243548763
1.0350237392747985
1.0283203125000004
1.0282409733574351
1.0257652904507373
1.0184065341552204
1.0187600702999173
1.020976246415734
1.018377860114407
1.0195312500000007
1.0256580463850657
1.0321775191470874
1.038302930788892
1.0445051911324135
1.051651454838062
1.0553976053903793
1.0546875000000007
1.0594751417176904
1.0691654960294796
1.0722111967818726
1.0717257522073964
1.07705368796122
1.082478286639822
1.0810546875000002
1.0800964161540199
1.0823369647913936
1.0803511719705048
1.080001931279353
1.087107820909987
1.0899330454166303
1.0898437500000004
1.0962636735167963
1.0997028621069163
1.0985439485545776
1.0990020287970301
1.094042654173753
1.0884916775968634
1.0898437500000004
1.0897409178279123
1.0924845335791606
1.0996798050639525
1.0991086453541374
1.1009803610478943
1.1118363283778405
1.1162109375000007
1.1160849824976629
1.114634621652144
1.1052394669654726
1.0987794449497954
1.099171449051206
1.0980342814511326
1.0986328125000002
1.0990236225740146
1.0998952148302392
1.1097978206660064
1.1163688117559756
1.1144621846522083
1.1191226328234396
1.1250000000000007
1.1248590333053121
1.125735509592463
1.124431460313178
1.1240209027398134
1.1309654104908204
1.1339189652044872
1.1337890625000004
1.1401442177688978
1.1438158292416232
1.1423268128305655
1.14254105017972
1.1420461822190175
1.1443378049842534
1.1513671875000004
1.1526326313149569
1.150084858945074
1.151904337722984
1.1519486445228841
1.1496576988837997
1.153993170489858
1.1601562500000004
1.160276961737968
1.162150731301913
1.1708798451398115
1.1773435241503551
1.1775160865992687
1.1790371411837315
1.1865234375000004
1.194109225044322
1.1952427119044726
1.1959583810168328
1.2027302329609257
1.2061371115971549
1.2025422091314655
1.2041015625000004
1.2111115193632616
1.2136240719039708
1.212739166462541
1.2128056891498735
1.2130274647591859
1.2127781140225649
1.2128906250000007
1.2131685239835241
1.2121941665534013
1.2136988389845178
1.220446192761003
1.223350266449114
1.2205820490615684
1.2216796875000004
1.2229845913012238
1.2182361083738502
1.2115366406981003
1.205046394314609
1.2030826208936567
1.2038193550691525
1.1953125000000002
1.1865074570759255
1.1884582238240597
1.1845830173882823
1.1712284702030422
1.1630835480779749
1.1578333397210598
1.1513671875000009
1.145569956025444
1.1375075577316993
1.134032804896007
1.140969207034649
1.1452810100835
1.139516675296798
1.1337890625000004
1.1338938126352642
1.1313886443905656
1.1235990725560638
1.1235747298553944
1.1315392610246464
1.133754256460919
1.1337890625000002
1.1351485077241035
1.1295708367719839
1.1246893149950437
1.1253430110788556
1.1203677883777348
1.1148735555751068
1.1162109375
1.1165699355213825
1.1161922526749326
1.1159501445126006
1.1153522096498187
1.1249083082051283
1.1382118171068214
1.1425781250000004
1.1527213306528914
1.170730589697241
1.1784274973672317
1.1841861182936508
1.1976991865346598
1.2067102880100917
1.2128906250000002
1.2247187364795071
1.2401311004956206
1.2617489622272215
1.2871950291764895
1.3109003179097873
1.339450134406036
1.3710937500000007
1.4013459157443648
1.437861796873793
1.4744505908325556
1.5052395628305524
1.539003226564885
1.5620807538553607
1.5644531250000004
1.5649759685559592
1.5579756476255722
1.5323426764266075
1.5075248299250157
1.4782994310393007
1.428784279300435
1.3798828125000004
1.3375516100761315
1.2871749436243334
1.2395014173873693
1.202291007254038
1.1684081885539022
1.1423198103847552
1.1250000000000004
1.1069259446670325
1.086064623728764
1.0698272573560048
1.0639566308611985
1.060009193799631
1.050818413879561
1.0458984375000002
1.046238882635089
1.045135354148209
1.0463655361891981
1.046530733276654
1.0438074588068755
1.04912566583914
1.0546875000000007
1.048767590419658
1.0442450812276203
1.0463439987527252
1.0461942577272292
1.0454483037176794
1.046129751982889
1.0458984375
1.0459275519181137
1.0455503974214464
1.0464794508917512
1.0529908479565602
1.0605602532328087
1.0652875524344068
1.0722656250000007
1.07983815600936
1.0809071131483077
1.0817690766124797
1.0885811967612793
1.0914898318158281
1.088834561788289
1.0898437500000004
1.090661088823758
1.0888399627723537
1.090303797563812
1.0903397827705792
1.0885687752464206
1.0911325104140113
1.0898437500000004
1.0828079057837092
1.0804711282316082
1.0810909420120047
1.0809732998970747
1.081426848773413
1.0806176833742627
1.0810546875
1.081865821942005
1.079562396048733
1.0822882943658194
1.0891404483659395
1.0898687283020176
1.091250894477582
1.0986328125000004
1.1051180184392428
1.1113767136534642
1.1169150277112165
1.116646170082481
1.1154572917849577
1.1167446189782073
1.1162109375
1.1155919936552674
1.1173038806489277
1.115234441936663
1.1084901835412593
1.1061317565487008
1.1081829339101725
1.1074218750000004
1.1068218365319362
1.1081525690522305
1.1070920822992518
1.1070772279737358
1.108253677467951
1.1066839478167108
1.1074218750000002
1.1084518045999723
1.1056926575498975
1.1087460567386833
1.1155817612978467
1.1161194513694601
1.1176447271623713
1.1250000000000004
1.1319567136159154
1.1350791622301677
1.1331818147921184
1.1328798943151437
1.1394083283567695
1.1431529285249202
1.1425781250000007
1.1477149568978637
1.1565184334933842
1.1603949530249729
1.1599915550892732
1.1637173418656424
1.1724521435717685
1.177734375
1.1828969473081719
1.1920374072714068
1.1953130705500312
1.1949899337011762
1.196512571838116
1.1938896241877994
1.1953125000000009
1.2029515916896727
1.2033747258451095
1.205266275611254
1.2123107194723592
1.2121585318374692
1.2155216959574837
1.2216796875000004
1.215323444076159
1.214244974942924
1.2230055997109455
1.222246665906741
1.2243289405739566
1.2334630578436714
1.2304687499999996
1.2276644191164237
1.2361109540523252
1.2390543999235824
1.2384950024669603
1.2446512977075979
1.2489101259750268
1.2480468750000004
1.2478627277745185
1.2481079698320237
1.2481064547795526
1.2483189172169824
1.2444372962636583
1.2355761724840613
1.2304687500000004
1.2309568039660397
1.2276572423988097
1.2202148397808756
1.2140536507417246
1.2078708570489367
1.2017653892021318
1.1953125000000002
1.1880901274801439
1.1862949715839999
1.185961085916062
1.1791481650124072
1.1756943590807474
1.179209017256783
1.1777343750000007
1.1712786143638922
1.1656242447502898
1.1585988117804482
1.1520649640251968
1.1508904515476353
1.1507713396612262
1.1425781249999998
1.1290687338958596
1.1211175344848499
1.1143256284843284
1.1012189608312593
1.0918232177078806
1.0884736873852376
1.0810546875000009
1.0734735425073165
1.0719470702834457
1.0723410886021787
1.0724947217771743
1.0688146210168858
1.0596360799016071
1.0546875
1.0554494916656632
1.0512709805004214
1.045142981289176
1.045642607662512
1.0432691757569563
1.032672533194882
1.0283203125000004
1.029826322234603
1.0236226033581894
1.019822988805051
1.0269265932990956
1.0299529265839833
1.0275023775886212
1.0283203125000004
1.0285290435426884
1.0285795603376944
1.0276357660939521
1.0207996504085786
1.0181590654827952
1.0193168391436094
1.0107421875000004
1.002376008782483
1.0026497553472367
1.0014975488995983
1.001406724911448
1.003419673526973
1.0004491345136322
1.0019531250000002
1.009434992950975
1.0103827953217162
1.0116482757558216
1.0185624123817727
1.0201237698852066
1.020440807480298
1.0283203125000002
1.0358203675463107
1.0376759571703675
1.0368564434387804
1.036604261337971
1.0416382723376427
1.0476248921680458
1.0458984375000002
1.0441460913884657
1.0502319698119038
1.0551310640396063
1.0548227190604182
1.0547025173767293
1.0544784276038472
1.0546875
1.0556179048102419
1.0512569760670991
1.0450720319733673
1.0453686433525957
1.0468903414978754
1.0450487180536348
1.0458984375
1.051998715241594
1.0570350240819761
1.0532002193050347
1.0462143650042248
1.0497296063941361
1.0566159294227384
1.0546875000000007
1.0535105683378965
1.056055171181055
1.0540730218560013
1.0540083716134627
1.056634689579195
1.0518827193655236
1.0458984375000002
1.04563510189642
1.0458710565017355
1.0460108537962272
1.0461103761353352
1.0450423202492518
1.0476410158327525
1.0546875000000007
1.061621353362832
1.0646260724381813
1.06305321347217
1.0630474286955212
1.0645593381606602
1.0624272490646174
1.0634765625000007
1.065524458249609
1.0581252543235684
1.055363021303152
1.062757502770662
1.0601259881640415
1.0525888042374725
1.0546875000000009
1.0556915101451856
1.05380254982125
1.0548987877793143
1.0545560714806412
1.0585192021417649
1.0656491848307323
1.0634765625000007
1.061823946360663
1.0656028284174406
1.0623966425049358
1.0620214616634387
1.0706698983775909
1.0704985108859995
1.0634765625000007
1.0627962691246238
1.0638686894199374
1.0634133694772923
1.0634853990889062
1.0633388984094891
1.0636626404167766
1.0634765625000007
1.0631627374624344
1.0639452891117351
1.0632312260190566
1.0631897733157054
1.0642320935750105
1.0627577692176011
1.0634765625000004
1.0645822070399833
1.0615759634632622
1.064922049177053
1.071821977594497
1.0715286976845126
1.0745573001536275
1.0810546875000007
1.0809498974398002
1.0836997225489204
1.0912542920519195
1.0972591541200831
1.1047214490384833
1.1075165162470386
1.1074218750000004
1.1143804161782094
1.1144444244580505
1.1061591478013122
1.1066894394869766
1.1081530213124606
1.108307260446498
1.1162109375
1.11816492979222
1.1141839347125977
1.1170139356412407
1.116953482586057
1.1146275789411322
1.117440671112686
1.1162109375000004
1.1149928156646087
1.1177692053308796
1.1154789562269591
1.1154016586590334
1.1184263783573507
1.1133022597967994
1.1074218750000004
1.1023002748508783
1.0929077496961583
1.0900242230188737
1.0905652252066043
1.084718973707034
1.0791005196828813
1.0722656250000007
1.0643637353999245
1.0642836436793528
1.0623203822328564
1.0551978195265534
1.058157664553846
1.0658259920203281
1.0634765624999998
1.0562969895670307
1.0542277790869667
1.0543758583448175
1.0478699384528265
1.0393103204404552
1.0360044663438301
1.0283203125
1.0193781603940293
1.0235125232890356
1.028581229136744
1.0278362136948496
1.0334866888699434
1.037730982738045
1.0371093750000004
1.0432423825191914
1.0470772849126475
1.0461365707039676
1.0530116608273468
1.057220027310456
1.0528750201218948
1.0546875000000007
1.0613953917740717
1.066535509867178
1.073908875264132
1.0803880071401883
1.081765716511673
1.0804529627715918
1.0810546875000009
1.0871833168392055
1.091696946138411
1.0891448277632136
1.0890289560519346
1.0944729897638148
1.1021849122435479
1.1162109375
1.1347918304196492
1.1556866732498683
1.183920872681554
1.2153965233289754
1.2492079262656026
1.2928492150178443
1.3359375000000002
1.372175725421726
1.4178158375535916
1.4682857504438833
1.5054296075245124
1.5372283914929623
1.5652065801092718
1.5732421875
1.567615012163949
1.557199363737204
1.5315091677578208
1.493327647659265
1.4522294791201082
1.402561457992946
1.3447265625000004
1.2875449637827472
1.234079231219731
1.1861917573656233
1.142335585407975
1.1015144464549336
1.0695649694682443
1.0458984375000002
1.0261573598006386
1.0110517669414338
1.0000897478166593
0.9939209017919808
0.9893769816136878
0.980588269740518
0.9755859375000002
0.976268537851174
0.97385047841209
0.9771231817845775
0.9843523260288696
0.9791660457322128
0.9762332942162484
0.9843750000000002
0.9852246330685336
0.9861209216529588
0.9945997014355552
0.9942003572784995
0.9912541530674929
0.9944979806799277
0.9931640625000006
0.9920495358117531
0.9944753908299354
0.992604414957359
0.9926194185447802
0.9943723168852193
0.9921928713042282
0.9931640625000002
0.9941947039987965
0.9917894908960575
0.9938443284029985
0.9939690137267098
0.9907611645055369
0.9965804660015065
1.0019531250000002
0.9960307304091909
0.9912260040381186
0.9941552167843857
1.000510197099938
1.007499763823188
1.0126044456534402
1.0195312500000004
1.0319974385160848
1.0429004629882863
1.0459549683992884
1.045559991007333
1.050014580821757
1.056955462141951
1.0546875000000007
1.0467788815993868
1.0484147174502212
1.0558093464879557
1.0555365454788739
1.0526249683396667
1.057526241163142
1.0634765625000002
1.0632980629771065
1.0661494429050526
1.0734251823285925
1.0731787162737312
1.0700773472098795
1.0751335873416021
1.0810546875000004
1.0814552749787676
1.080737855624641
1.0812332945493617
1.0814724974134537
1.0767773610745714
1.070283686111669
1.0722656250000004
1.0744229472162719
1.0672688827335972
1.0634549813464163
1.0640720127619292
1.05832869726011
1.0537469663564998
1.0546875000000002
1.054427229871917
1.0570839950816664
1.0652119457362812
1.0716254484523378
1.0728026613017654
1.0726681497449375
1.0810546875000002
1.0953543981339295
1.099484117373663
1.0991390430916643
1.1061189207180553
1.108634351921719
1.1080172098167025
1.1162109375
1.118697864230458
1.1130427348497063
1.118105320983769
1.1249307343644237
1.1235346679735276
1.1278190030439474
1.1337890625000007
1.1331382340578293
1.1373459242926138
1.1431536157407491
1.1425095456464514
1.1464801291949598
1.1535190364610606
1.1513671875000002
1.144565803320641
1.1410744659954337
1.1436240973204328
1.1503517919123805
1.152491564728025
1.1508265409958025
1.1513671874999998
1.151200687895101
1.1536107508406608
1.1619128399663698
1.1681076031531654
1.1731461194633124
1.1808224095496662
1.1865234375000002
1.192625858945126
1.1974793053871133
1.1943703010478048
1.1941088542753087
1.2015080951461283
1.204329285365621
1.2041015625000004
1.2048316071977805
1.202522550723863
1.2054966700693126
1.2126469019077972
1.2084095779908048
1.2038911482663637
1.2128906250000007
1.2160735835942935
1.2070148315224989
1.204381900262963
1.2049564178006478
1.1983751373605231
1.1949523687300683
1.1953125
1.1893635470750892
1.1845829201071933
1.1872402004919795
1.187376272595392
1.1815655292514546
1.1753850221033728
1.1689453125000009
1.1619199899960353
1.1594641636049923
1.1599608869146334
1.1534990797472335
1.1440999386088573
1.143111620765325
1.1425781249999998
1.1360772815080014
1.1310971148101951
1.1226107037541158
1.109402818435226
1.1025464314649993
1.0942742939129382
1.0810546875
1.074544047711406
1.0660489123359875
1.0523206289702056
1.0465022060680675
1.0415451134082734
1.0353970488756774
1.0371093750000002
1.0375452086174175
1.0389344134246825
1.0474211015805535
1.0471249654875143
1.0432996282758558
1.0481088313650058
1.0458984375000002
1.038078915106262
1.037472275224622
1.0367198082404416
1.0365646470092726
1.0388080470481633
1.0345950897114786
1.0283203125000009
1.0227481675621528
1.0144844182448565
1.0105141211907336
1.0107813304582092
1.0104165292857894
1.0110993543386333
1.0107421875000002
1.010360926063003
1.0110230471151247
1.011018718085248
1.0176126174334763
1.023404651297348
1.015117666535915
1.0107421875000002
1.0179020450556477
1.0192578642689247
1.0204831219520691
1.0274690285527437
1.0284556402572158
1.0298586276995405
1.037109375
1.0383461970245036
1.0359478510047941
1.0375609294894268
1.0375735033691242
1.0357500353053843
1.039349210846936
1.0458984375000002
1.0471827306296946
1.0428007964293622
1.0354721884536264
1.0287187020004063
1.0317116315050212
1.0395793743718624
1.0371093750000002
1.0345953277963966
1.042537357932854
1.045721520185096
1.0450831514195507
1.0516443209825423
1.0549585272172035
1.0546875000000002
1.0608742658792005
1.0649885659630056
1.0630523998255246
1.063171527025286
1.0640223365608363
1.0630801060950565
1.063476562500001
1.0641803696087613
1.0607552313731612
1.0530328912859253
1.0465940917735626
1.045103371998994
1.0465611340089744
1.0458984375000007
1.0397319839034016
1.0353121114507817
1.0377490160452494
1.0377069144409836
1.0357375998881748
1.0383157630777562
1.0371093750000002
1.035155325693737
1.0419563251755601
1.045961277204252
1.0453314557460325
1.0509861467627306
1.0557009342305355
1.0546875000000004
1.0545168418060427
1.0546520850040502
1.054802677106571
1.0549225262775395
1.053683942703561
1.0567159791231142
1.0634765625000002
1.0650349324606705
1.0596868080087893
1.0539096898873275
1.0541314308257121
1.0558403504975946
1.053724716538924
1.0546875000000007
1.0559827266290973
1.052557298557199
1.0562379434625497
1.0631482253704063
1.0624239379751472
1.066140855924767
1.0722656250000002
1.0670334533664456
1.059214201095978
1.0533771140662789
1.0467135477132743
1.045331814868977
1.0457937716671677
1.0458984375
1.0516760493397503
1.05856747739165
1.0648991038883566
1.0715389189948439
1.072634137061901
1.0725760260855721
1.0722656250000002
1.0657747054945872
1.062605002518573
1.0631748493036206
1.056492088328173
1.048951430640723
1.0435501161575425
1.0371093750000002
1.0362975481056382
1.037472974151549
1.0374847733593786
1.044125694110887
1.0514238197893087
1.058076820392624
1.0722656250000004
1.0812129848526204
1.0797390100775799
1.0818413980549528
1.0821795071232256
1.0749602777361023
1.071998217755756
1.072265625
1.0712834794537844
1.075856477550907
1.0817798534199836
1.0814519385805033
1.0804716981784959
1.081381489716784
1.0810546875000007
1.0809419832941924
1.0809440858635144
1.0814873114538053
1.0879216158879845
1.0966193263601072
1.0985531116934553
1.0986328125000002
1.1043964580356755
1.1114562649659514
1.1174864684909358
1.1240236847635294
1.1262609570373308
1.1241476556294079
1.1250000000000002
1.1262878334562376
1.1212069838373617
1.115524146058368
1.1158145894892506
1.1168611431589142
1.115776691645896
1.1162109375000004
1.1165929545389948
1.1157249266781977
1.116442579318995
1.1164725999549545
1.1154976422208003
1.1169925898637958
1.1162109375
1.1101207937440505
1.1037589751704577
1.0971918655852442
1.090643402003383
1.0890320338599642
1.090260087686626
1.0898437500000004
1.0895010016856612
1.0904641739196728
1.0891816091907214
1.0827015274117529
1.075238608836572
1.0704429878877915
1.0634765625000002
1.0558822259693446
1.0548515876725422
1.0539888533289883
1.0472388249072224
1.0436962351729266
1.0485386603055544
1.0546875000000007
1.05552778424569
1.053725911645043
1.0551969421029623
1.055486310746484
1.0494121932813973
1.0448757720384294
1.0458984375000007
1.0463146530446292
1.0454501176888606
1.046127847847524
1.0463134006584607
1.0419745428272313
1.0337236229060236
1.0283203125000009
1.0280220979640884
1.0285203911405765
1.0282182891985532
1.0280421152610677
1.031931520438256
1.0407023929238668
1.0458984375000009
1.0504066174787998
1.0630834103162816
1.0736647291269508
1.0792799279834586
1.0912094781011739
1.101828186425278
1.1074218750000004
1.1238033120180302
1.1493554940581086
1.1739943868072809
1.205169925708413
1.2473119161402324
1.2921586680152062
1.3359375000000007
1.3846800532798555
1.4387397224200842
1.4844404263436632
1.5154810202256688
1.5377286275748787
1.5509173499264652
1.5556640625000002
1.552347040406711
1.533802088715526
1.506068752802109
1.4753441200795032
1.4302737210438659
1.3759412763253107
1.3271484374999998
1.2778527326863691
1.2255883700987305
1.1771925494191589
1.1330115666680114
1.097498772959737
1.0709175716678845
1.0458984375000007
1.0255602815065648
1.0116198612166183
0.9998630014672116
0.9935806710420143
0.992901391890312
0.9933967176028878
0.9931640625000002
0.9878717270366997
0.979388111876711
0.9752014826229698
0.9753299304757262
0.9764378143037119
0.973737818617053
0.9667968749999999
0.9651610231482832
0.9703409936770802
0.9769844945827072
0.9835600518656772
0.9848522098854704
0.985433167064826
0.9931640625000002
0.9951531069617313
0.9909221632319168
0.9941614589105985
0.9942475520999627
0.9902065022529315
0.996918893014622
1.0019531250000002
1.0004838279633053
1.0065626828905965
1.0108091286471914
1.0100895665080023
1.0162701707903343
1.0198567342724074
1.01953125
1.0261851950221899
1.0273133847141376
1.017394283659006
1.0110954356021018
1.0105738080896813
1.010855389548928
1.0107421875000004
1.0103863293874789
1.011486412331064
1.0101706323842632
1.0095884751460005
1.0200652475761138
1.0323283888707633
1.0371093750000009
1.0428762245661598
1.0499353570676262
1.0560210583945977
1.0626759599554352
1.063796221744282
1.0647467023550332
1.0722656250000004
1.0738684686288953
1.0706410853877373
1.072907468974002
1.0728691586083285
1.0709253198892523
1.0733897085246578
1.0722656250000002
1.0705674279994577
1.0766159044798034
1.0814733063947306
1.0811561192731183
1.0811688263074366
1.0806998986221847
1.0810546875
1.0866324742894216
1.094332457391268
1.0995408918974787
1.1056962007970959
1.1142542359677894
1.1149750001004708
1.107421875
1.1060167578720086
1.1087927458605478
1.1068919496394685
1.1069309870655017
1.1084935489834091
1.1065502641601537
1.1074218749999996
1.108476155202786
1.1057424721610805
1.1086757577965891
1.1154323789454301
1.1168436495347696
1.115924058645057
1.1162109375000004
1.120835317945443
1.132961038937443
1.1442898667120962
1.150073439486302
1.1597274082721343
1.175233960611019
1.1865234375000007
1.1925800155853863
1.199939844273957
1.2044024826105142
1.2038413377787738
1.2083954538988684
1.21460952819335
1.2128906249999998
1.211885940236488
1.2139825682154453
1.2124589525746905
1.2125218814000929
1.2134254589658857
1.213433030201374
1.2216796875000007
1.2301049754696314
1.2293555946748531
1.2315460861647722
1.2381579906073947
1.2435251846875148
1.2515017250424723
1.2568359375000002
1.2566538881127103
1.2576422396832272
1.2559791166479648
1.249402957390046
1.2431236311679605
1.2364308379257996
1.2304687500000007
1.2293652243803692
1.2335611632112593
1.240690020141667
1.2468592393027431
1.2534795367417202
1.257060910915648
1.2480468750000004
1.2390441368104168
1.2414461610790488
1.2371559240766763
1.2236116993859387
1.219566050208768
1.2229645829116884
1.2216796875
1.215255706944626
1.2112939777161726
1.2134828640318938
1.2134787910561962
1.2114407995841365
1.214297292085411
1.2128906250000007
1.2060384391940455
1.2015249049765668
1.193302396630251
1.186621072723727
1.1878459949363207
1.1839136544163054
1.1777343750000007
1.173306495359581
1.1598780448225428
1.1508323376782061
1.152012463188474
1.1425820690823787
1.1297270879825356
1.1249999999999996
1.1139905292745558
1.09835131972384
1.0881750248499844
1.0817328597352762
1.0808009615786849
1.0799308520735205
1.0722656250000004
1.0653392065512743
1.0603224008488725
1.053225029467447
1.0470021029608068
1.0411056673716752
1.0345004547148637
1.0283203125000004
1.0219698701066349
1.0159141511371033
1.009573305555993
1.00917459198634
1.0211285597087925
1.0305005626474257
1.0283203125000002
1.0274914218327527
1.0289666893214704
1.0282189521028187
1.0285640465034065
1.024232334564458
1.017564543426346
1.0195312500000009
1.0210211282366068
1.017447551896319
1.0209269564496224
1.0276600469235735
1.028708763836185
1.0282646100198802
1.0283203125
1.0284958803595765
1.026388934012699
1.0174351528059737
1.0108391306052626
1.0120175537674962
1.0080338618351283
1.0019531250000002
1.0070801847753221
1.0151826740896635
1.0207581750701644
1.0274502883677548
1.0287394463223805
1.0295612655395563
1.0371093750000007
1.0383618546749496
1.0377592308672041
1.048412234721643
1.054852319221184
1.0533954444481641
1.0560254988133608
1.0546875000000009
1.052473944238157
1.0599038876609412
1.0633531645200096
1.0626946686581398
1.0691432752537424
1.072687643215226
1.072265625
1.073464825101244
1.067981550794807
1.0635782731316048
1.0706610221061825
1.0744795170775212
1.0708141741782424
1.0722656250000004
1.0741451143804095
1.0674466614054172
1.0637252398047379
1.0707509355052232
1.0743352332998004
1.070955158286065
1.0722656250000004
1.0733801064856365
1.0708780945968837
1.0729026332174123
1.0729409536192718
1.0706125732867875
1.0737584708558612
1.072265625
1.069936828755512
1.0776082725215597
1.0809130670103226
1.0804241837267152
1.0834923611044405
1.077342524190547
1.0722656250000007
1.0791325959469553
1.0810023589897517
1.0819526217045232
1.0889547939721353
1.0902026204489244
1.0903470417020225
1.0898437499999998
1.0829296438049794
1.0807385712135513
1.0807155166347946
1.0801129430904957
1.087548946885135
1.088193252681209
1.0810546875000007
1.0862715087653578
1.0920984622590195
1.0892377693812834
1.0894979660390198
1.090102580383901
1.0901379755450724
1.0898437500000004
1.083318750810691
1.0803319115649832
1.0805974146836619
1.0736807141393092
1.0704867232349053
1.0732190991741217
1.0722656250000013
1.0718519183334592
1.0725032560342964
1.0722934453789814
1.0724632134018544
1.0712024707155556
1.074465040484159
1.0810546875000002
1.0860045669736198
1.0982262895319188
1.108295587924809
1.1072588842338498
1.1124436123123336
1.1157385860516544
1.1074218750000004
1.1068708636253477
1.1033252167535514
1.0866792659596631
1.0808605950093193
1.0788439751610321
1.06761146061938
1.0634765625000009
1.0639197688361772
1.0645075253313383
1.0750080509589102
1.087730781847692
1.0988867561112208
1.1133319418470897
1.1250000000000004
1.132146740514168
1.134385779569798
1.1340967136699316
1.1407205166121648
1.1484664158846412
1.1536930906457106
1.1601562500000007
1.1557430882666742
1.1475372428645374
1.1529831642088255
1.153260428187589
1.143300850292244
1.1450027605654578
1.1513671875000007
1.151363168051276
1.1519554109118604
1.1508494186066638
1.150331263184614
1.1599900745608698
1.1747667210774793
1.1865234375000002
1.193728157614832
1.1963875998446907
1.1945366376022022
1.1880574891478415
1.1810800898701328
1.175365687088142
1.1689453125000007
1.1676554640635697
1.1704691390489164
1.1681854723633291
1.1678918790504489
1.1748192543625564
1.1782327851634458
1.177734375
1.1780964346283038
1.176744676602347
1.178765857455691
1.1857185924586422
1.1843721154295457
1.1723725471975666
1.1601562500000009
1.148120124576007
1.1343131330726202
1.122881967725255
1.1104600393196615
1.0954780896012832
1.0885064920033456
1.0898437500000004
1.0901264697042594
1.0897547290657872
1.089780521911203
1.0896642988163507
1.0906166004207234
1.0886904926898198
1.0898437500000007
1.102207372027272
1.1123676093006012
1.1176995330809514
1.1308305102550136
1.1415616060961788
1.1423887756053603
1.1425781250000004
1.1377337786608854
1.1284290826250112
1.124441349164455
1.1182169540060145
1.1090970517620435
1.1078314730092758
1.1074218750000007
1.101065022370172
1.0969046740497914
1.0996391889559962
1.106119714868716
1.112150602826852
1.12000278188522
1.1337890625000002
1.1474440880221912
1.1558753576329852
1.1608541075549546
1.1608672150646597
1.1556923646913664
1.1483524987218556
1.1425781250000004
1.1421305734007179
1.1425074131563915
1.143357552916245
1.1560117974669684
1.1792731895346253
1.2076168589033816
1.2480468750000004
1.297939827363708
1.3499817346139225
1.410525332679881
1.480030413571064
1.5496972171210597
1.6183666497331384
1.6875000000000002
1.7524462139914014
1.8053138054252014
1.8435130836426308
1.8688405150157936
1.8770130520067607
1.8651714301318902
1.8369140625
1.7905081240262424
1.7267429200061066
1.6553837642130438
1.5801593592982222
1.4996169456807718
1.4179421462232609
1.3447265625
1.2861814955077222
1.2354813107548182
1.1855397792282096
1.1414638337631953
1.10660434032417
1.0805983757513442
1.0634765625000002
1.0503041840047769
1.0411689449553971
1.0357900669028184
1.0230496008803578
1.0069569813541883
1.0002023374583555
0.9931640625000001
0.9799470745904671
0.9712445582898666
0.9654841907117995
0.9588523871889709
0.9572241152364065
0.958301479392594
0.9580078125000004
0.958147098729605
0.9574029491343373
0.9588030498749729
0.9655834469366205
0.9682367013732062
0.9666704516306754
0.9755859375000001
0.990118633441118
0.9939411536427644
0.9935517398966908
1.000191586382437
1.007806159828697
1.012672358391758
1.0195312500000004
1.0267212608192784
1.0290090243716632
1.0281947411742463
1.0284211548829056
1.0251460954945935
1.0153692188391719
1.0107421875000002
1.016517520734231
1.0233839277508834
1.029696811453654
1.036141327430667
1.0408836845027132
1.0507892751510812
1.0634765625000009
1.07006754258447
1.0765410079762856
1.0811958763058347
1.0745571640331872
1.0624736383252256
1.0491458667678626
1.0371093750000002
1.0311929694218036
1.021257377781614
1.0091130795661933
1.0097528300337895
1.0121459243914688
1.0108186792693208
1.0195312500000002
1.028169370315025
1.0270238347379914
1.0294794212901413
1.0362221565587049
1.038118286362112
1.0363246388419858
1.0371093750000007
1.0434570179183815
1.047361397360129
1.0454839798509998
1.0456533656047136
1.0459119270092512
1.0471666004914582
1.0546874999999996
1.056577974971939
1.0524222729891497
1.0560000218242123
1.0623184194927984
1.0708640509973177
1.0892477569706973
1.1074218750000004
1.1203162741496588
1.1307441936756664
1.1338118607041838
1.1335544294074051
1.1347477794878713
1.1320454931567445
1.1250000000000002
1.1134118938491995
1.0985441696475629
1.0883217268641867
1.0822556264927798
1.0760653074014486
1.0696188894596963
1.0634765625000007
1.0625160972395158
1.064336110009978
1.0634281760629691
1.069652061396933
1.0836436540047507
1.0925607013895373
1.0986328125000004
1.105364675328736
1.110389878035409
1.1179623596229171
1.1245503254504554
1.1247427244567525
1.1264317885014532
1.1337890625
1.141086412211525
1.1429892900417309
1.1429196525940346
1.1494598675571968
1.1576784195174312
1.1616585113871274
1.1689453125000009
1.1764108949337395
1.179642256281723
1.189120925423106
1.2021664918347739
1.2094935239398434
1.2154039501721083
1.2216796875000007
1.2279753044132036
1.232662396907273
1.2291650002328196
1.2226419781245972
1.2176429692926505
1.2092722460294256
1.2041015625000004
1.2044464277796152
1.2031446173611398
1.204809083017436
1.2054083718706552
1.1944253712047943
1.1827885682646244
1.1777343750000004
1.1717754183299882
1.1650245914713304
1.15888365425515
1.1525241566266076
1.1467844039896629
1.1394385339099236
1.1337890625000007
1.1336175273117326
1.1334128445226648
1.1344849183424157
1.1412018398478652
1.1448886063098034
1.139874677627294
1.1337890625000002
1.1288704858573066
1.1155033169664448
1.0946445784700425
1.082112022326148
1.0775705224743242
1.0671572001939251
1.0546874999999998
1.048000186928245
1.0422785322037602
1.0358846985087191
1.0296858555423603
1.0228474709359576
1.017649480760958
1.0107421875
0.9981870243740185
0.9877044587089002
0.9837911414216218
0.9777359572335036
0.9651246334198079
0.9546330878943922
0.94921875
0.9426451583917796
0.9393689482521238
0.940281365958582
0.9335541322266712
0.9280657496593783
0.9354785755726761
0.9404296875000012
0.9397499519029335
0.941713910839248
0.9396804619598721
0.9394359270106943
0.9437140874365392
0.9351464435234214
0.9228515625000004
0.9226050224935298
0.9204347314691737
0.9125691876125551
0.906538557945528
0.8996002081198101
0.8957450982505969
0.8964843750000007
0.8963967166634589
0.89695238457496
0.8960710399884884
0.8956797892775694
0.9020194980819495
0.9057960817420179
0.9052734375000003
0.9108291197652867
0.918180952744883
0.9241646125670383
0.9307827797752192
0.9324136752216353
0.9314280832926315
0.9316406250000009
0.9309637387015582
0.9347786214547632
0.9414214653250147
0.9413157937703072
0.9355407565600055
0.9297704455899547
0.9316406250000001
0.939498942659101
0.9377298771768897
0.930746890303213
0.9312495886201368
0.9316534082892701
0.9330286381801812
0.9404296875000006
0.9463191606164643
0.9562035210135789
0.9684747907802005
0.9678359598114789
0.965301635012879
0.9667485275096089
0.9580078125000007
0.9498008732012629
0.9479096604894123
0.9379542364154779
0.9313194719456096
0.9339257185331756
0.928037924490682
0.9228515625000006
0.929460455505883
0.93202348831941
0.9322961581519329
0.9392631332460114
0.9413527205654165
0.9412279058017231
0.9492187500000007
0.9518488898444932
0.944066173871786
0.9402968911290498
0.9405878933716527
0.9397176390976101
0.9413382988115814
0.9404296875000006
0.9336956811303413
0.9307484086697586
0.9317471388352209
0.9314181081749263
0.9353795865893456
0.9437291938857222
0.9492187500000009
0.9546747219985535
0.9632522352466847
0.9665969455693482
0.9598904725569475
0.9517955566402563
0.9477565811939848
0.9404296875000009
0.927848050036698
0.9157172821322218
0.9024139121040599
0.8895285970715944
0.8826076734958367
0.8757913376464038
0.8701171875000001
0.8752191603789878
0.8833612410680758
0.8891559219574645
0.9019645824966319
0.9171391684503296
0.9255031143495965
0.9316406250000008
0.9379948628820675
0.9443142946315106
0.950028515524801
0.9498277245509142
0.9478885870490463
0.9504683544466462
0.9492187500000004
0.9423049269141281
0.9396885398870498
0.9405027182748694
0.940215725237887
0.944006004215064
0.9528714580565016
0.9580078125000008
0.9576390697040239
0.960613661072658
0.9683817048810163
0.9745773073291718
0.9801575662155879
0.9871879969121391
0.9931640625000002
0.9992838460771026
1.0056803092062168
1.0123994698683687
1.0251218307000178
1.0401021594240312
1.0484762525424434
1.0546875000000007
1.0617229188526842
1.0644577323607658
1.0628517647125484
1.0565187121681636
1.047949832377788
1.0460832764335353
1.0458984375000004
1.0394107550955807
1.036144505452837
1.0369097433025385
1.0303141493833394
1.0218586127262863
1.0181890134846836
1.0107421875000004
1.0023455288153
1.0049868601073269
1.0116057230849087
1.0112266743188425
1.0101662917341212
1.0102464697131541
1.0019531250000007
0.9888491106223805
0.9778558468538425
0.9636466703179631
0.950700222810174
0.9452906604265708
0.9352639383584481
0.9228515625000007
0.9221664229084315
0.9208651049848017
0.9127185306364508
0.9130932520756609
0.915887036286211
0.9127373973912094
0.9140625000000002
0.9153230123547397
0.912430680502964
0.9148520151764846
0.9149759181811614
0.9114215221036156
0.9176231495975095
0.9228515625000006
0.9211815257337745
0.9295515456202424
0.9424541293880907
0.9482263875931765
0.9544931464433422
0.9589597705584124
0.9580078125000003
0.9583585820186102
0.9551926018012658
0.9481354073237278
0.9484126439323372
0.9510662118843004
0.9467421627252521
0.9404296875000011
0.9389936493224362
0.9442591625316307
0.9498667995116329
0.9494108191879488
0.9518207569338807
0.9632216603874586
0.9755859375000007
0.9876289916127232
1.001482297408862
1.0127745878398184
1.0249434646666458
1.0460416915582047
1.0769061143416476
1.1162109375000013
1.1599523676146415
1.2055741125134107
1.2598566655426953
1.323107367256962
1.3862999757346615
1.4491733696069815
1.5117187500000007
1.5689219184261987
1.6230884728435417
1.6688164288579515
1.693552487923322
1.7035503055854255
1.7025742310885492
1.6787109375000002
1.636592598141385
1.584180751104432
1.513711710575977
1.4314598179665452
1.3501497759784447
1.267347613744314
1.1865234375000007
1.115592673611592
1.0537257904333717
1.0009205328316892
0.9568471769977039
0.9249441156938026
0.9091417352363486
0.8964843750000003
0.8823032211095477
0.8760438502351294
0.8676123382038482
0.8541371847947138
0.8516531528301939
0.8513707270955836
0.8437500000000003
0.8423690903671825
0.8449568420011688
0.8433571282005785
0.8434685623378188
0.8441508051218676
0.843636456712144
0.8437500000000014
0.8430146093220391
0.8470978687324769
0.8532703730760526
0.8526528618013479
0.8560384221942907
0.8637006945275985
0.861328125000001
0.8592571408390789
0.8656749571459721
0.8710511208716895
0.8774655000435446
0.8815083690732033
0.8765646393902403
0.8789062500000008
0.8921487123043079
0.9006158076594937
0.9067338082916021
0.9134370420016541
0.9140074029813636
0.9154991668672757
0.9228515625000002
0.9293503812461544
0.9355537051174821
0.9411644122502537
0.9409099383743544
0.939531631953354
0.9411337024248646
0.9404296875
0.939241383575524
0.9440713151224518
0.9500045651793079
0.9497844057835522
0.9477917267969059
0.9514679349601805
0.9580078125000007
0.9591346505188272
0.9565665307954724
0.9590386115602318
0.9655661987240803
0.9714565788221632
0.9786893163822621
0.984375000000001
0.984365040674099
0.9865053757482354
0.9950377803203477
1.0014951438300812
1.0019074993032921
1.003096094662105
1.0107421875000009
1.0185328825390985
1.0191929223324463
1.0202764106043891
1.026906981895091
1.0332287571543735
1.0401338452601465
1.0458984375000007
1.045603680245711
1.0489041085205555
1.0555385557574026
1.0549145799909765
1.057909362955282
1.066118759335891
1.0634765625000004
1.060891543845928
1.0688760656322442
1.0721928704870423
1.0717895850702979
1.0741628873577203
1.069158090699765
1.0634765625000002
1.0692390107559115
1.0742008131326843
1.0716143266255589
1.0715384406016863
1.0767494995009528
1.0840799090022495
1.0898437499999998
1.0900898210355117
1.0915646037420654
1.1007362267586507
1.1072559152731738
1.106521254598462
1.1094971488334675
1.1162109375
1.121676789376326
1.1321682324812465
1.14462647105092
1.150551601195444
1.1557937862404193
1.1628989427889798
1.1689453125000002
1.1758163431937598
1.17838626595623
1.178114083132143
1.184936740265175
1.188898479697453
1.1849049178937057
1.1865234375000004
1.188142807093268
1.1841463137357653
1.1881115056268392
1.1949346740198479
1.1946544901398914
1.19723894468798
1.2041015624999998
1.2101003184890071
1.2174435301155804
1.2221189620245547
1.2218511889169918
1.221501465717228
1.2218241799861782
1.2216796875000009
1.216745199034213
1.207152383922844
1.2042812147768385
1.2049009053415791
1.198191557768496
1.1961053574838314
1.2041015625000002
1.205808717700074
1.2022797088608133
1.204939214906477
1.2052074086116698
1.1980978545546097
1.1950317895809328
1.1953125000000009
1.1897237570505614
1.1823415393142243
1.1764875663888859
1.1698895861549248
1.1680690933454239
1.1685075943575232
1.1601562500000009
1.1473144884225526
1.1353032532179816
1.1227265253479501
1.1165870696931883
1.1134466238285379
1.101903943618783
1.0898437499999998
1.0834147577348507
1.0773171199080762
1.0707307701567497
1.0581177528631025
1.042085065688648
1.0355713833447544
1.0283203125000004
1.014110206554696
1.0099820147168737
1.0101384904822026
1.0031210577237843
1.001083384504607
1.0011324967618562
0.9931640625000002
0.9861252827222639
0.9812719448681172
0.9741496509289508
0.968009126538603
0.9613385873686145
0.9571551925899052
0.9580078125000004
0.9528980885978879
0.9458243694893124
0.9511091937237653
0.9580416657076607
0.9535082937679181
0.947715058584417
0.9492187500000007
0.9505113307885212
0.945717496997073
0.9392215611143475
0.933071553477435
0.9257611707237099
0.9222109219915293
0.9228515625000006
0.9223772810629349
0.9257552505071165
0.9327030643742724
0.932432351723498
0.9298556376205681
0.9339531220265778
0.9404296875000009
0.9470011432856308
0.9507281783090564
0.9486724462835356
0.9487040734886802
0.9503997453441632
0.9481849123465155
0.9492187500000001
0.9509048635596528
0.9448353158242537
0.940045512658557
0.9403761800693432
0.9402230829501372
0.9407165830445844
0.9404296875
0.9442662390068701
0.9585896133065014
0.9673537795584489
0.966443295081041
0.9717917336706088
0.9762770800587486
0.9755859375000003
0.9820443601815126
0.9833043065800824
0.9739424516876016
0.9743375489516977
0.9781137648091849
0.9734831948429961
0.9755859375000009
0.9833306450213187
0.9838763926796285
0.9852447482863199
0.9920184935466276
0.9947376713944386
0.9918907125342943
0.9931640625000009
1.0004953079752104
1.0000574187483595
0.9918162600410892
0.9921729500075565
0.9951200685053428
0.991632111609985
0.9931640625000001
0.9952285378086376
0.9883458730113893
0.9841753496712722
0.9845060492306242
0.9837158710790922
0.9851380229562945
0.9843750000000009
0.9827994341800328
0.9886892621387552
0.9935485785671561
0.9931787198212257
0.9936098187914901
0.9924013171928535
0.9931640625000008
0.9998079128759969
1.0029968666045128
1.001707079602423
1.0017880351368915
1.0024123196561536
1.000728247081693
0.9931640624999998
0.9853003280698438
0.984725943204024
0.98390614541504
0.9834768611103248
0.9901671569362732
0.993447325544782
0.9931640625000009
0.9990608591312753
1.0055274005878692
1.0123872419506155
1.0191752425696676
1.0183026426867365
1.0233953214198832
1.037109375
1.0386718723392734
1.0378488960981624
1.0481827089534286
1.0543024769021767
1.057946153457691
1.0673296925877278
1.0722656250000004
1.0771081869334673
1.086963364734838
1.0896272168855066
1.0891011467077691
1.0951539619859025
1.0996006510634517
1.0986328125000007
1.0979753864730675
1.1011346537767386
1.1092509524348788
1.1158086326161718
1.1157884538989364
1.117969424757767
1.125000000000001
1.126381632827053
1.123306177762715
1.1261245567445468
1.1326398207686104
1.1382858752995209
1.1457945757348114
1.1513671875000009
1.1514523102348675
1.1518847435636237
1.1505742794167981
1.1437830796847248
1.141059607994251
1.1434647069022184
1.1425781250000007
1.1421442512520157
1.1415267376935125
1.1309386206509686
1.117883150852576
1.1117718060049482
1.1029102233786863
1.0898437500000009
1.0827987532807206
1.077578038795415
1.0714287569963397
1.0718956826484258
1.069911740231956
1.0588274056586107
1.0546875000000004
1.0562854053311475
1.0501561640043007
1.045666892674943
1.0461020816018176
1.0447372207927426
1.0475679672245752
1.0458984375000004
1.0323204673153792
1.027021276808492
1.0278801622069944
1.0207817386950864
1.018746212080608
1.0182131867804163
1.0107421875000004
1.0150430170483244
1.0231585270662231
1.0181989279436905
1.0183087648399018
1.0222587466497377
1.0171481934220543
1.0195312499999998
1.0277399555257347
1.0271086760230241
1.029590137126298
1.036496814419456
1.0368963368310573
1.0386968568319168
1.0458984375000009
1.0523399717150024
1.0584243512770568
1.064692501069174
1.0709269283878076
1.0775821611432053
1.0831818010809755
1.0898437500000009
1.1013067450899068
1.1179432807259018
1.1380466417644337
1.1628741371540499
1.197576472714425
1.2374557341427397
1.2744140625000007
1.316326151453477
1.3665512238117594
1.4159645490938322
1.4661117418786929
1.517934771461561
1.565134022857339
1.6083984375000004
1.6429269329564065
1.6622589306583027
1.6708033189480354
1.6648354881802012
1.6389486924944026
1.601193678256229
1.5556640625000002
1.5009758050495021
1.4370369852040312
1.3653305361454593
1.2960895915211779
1.2330864649138762
1.1704469790382757
1.1162109375
1.0769616620058866
1.0439571730960076
1.0138555858054155
0.9886213701229731
0.9716240625173729
0.9648165073524988
0.9580078125000004
0.9501043726805134
0.9499738840171295
0.9481348285550752
0.9411801926891388
0.940537434926523
0.9385716701329848
0.9316406250000001
0.9357979157970467
0.9463883517733295
0.9494790241994657
0.9554463411099573
0.9698128976987851
0.9766579935965952
0.9755859375000002
0.9814891197395603
0.9845241389475109
0.9727955915783895
0.9662906424100552
0.9693710381732765
0.9630027848518791
0.9580078125000004
0.9648168520197643
0.9668898942580035
0.9676081998569646
0.9746122859199103
0.9759594832684687
0.9769621844999788
0.9843749999999999
0.9857089342810793
0.9831431659697549
0.9848294182887701
0.9848034572624896
0.9832271990166314
0.9862505657352593
0.9931640625000002
0.9998072506018165
1.0052076162996666
1.0122772938971465
1.0186345390878262
1.0234719260606928
1.0320822934026634
1.0371093750000007
1.0359549688776462
1.0414691938094296
1.0457326467996415
1.038634903941667
1.034984284662995
1.0392324014481327
1.0458984375000007
1.0534375991106435
1.0541297641711982
1.0560887891695734
1.0695134064374816
1.0789982569797048
1.0829103692508366
1.0898437500000004
1.0908759000216384
1.0893397420433195
1.0894465189154476
1.082602512437536
1.078879062280052
1.082378200514956
1.0810546875000004
1.0802651998002966
1.0815738600437728
1.0813532156825232
1.088112153304232
1.092670868468841
1.0876793110894838
1.0898437500000004
1.0973628588492754
1.0988383421007106
1.0986253870306235
1.0984487135466605
1.102142422073654
1.1109170849665773
1.1162109375
1.121986486784864
1.1275484503290951
1.1239004022923818
1.1236552678592175
1.1314597768140802
1.1338698321600582
1.1337890625000007
1.134371732847972
1.1328800619018329
1.1342706693289124
1.134371263505569
1.1320574252933469
1.1363107578696159
1.1425781250000004
1.1481854691619515
1.1562419953782603
1.16075242681293
1.1666830827469994
1.1798235447843195
1.1894872898276638
1.1953125000000004
1.2022704492239114
1.2049676746947138
1.2038425350038793
1.2037149274839656
1.207945085439753
1.2162301023013702
1.2216796875000004
1.2272634782098966
1.2337172491629707
1.2285053205009344
1.2214485403180584
1.22692786464689
1.2310541029583326
1.2304687500000009
1.231622763124922
1.2261956185220881
1.2217969893664642
1.2289036368813673
1.2325249111563095
1.2292204546296095
1.2304687500000002
1.2318403363465114
1.2267460476841123
1.2208699983820823
1.2210283065094798
1.2234617364049027
1.2189709626441243
1.2128906250000007
1.21307810176504
1.210131345049167
1.2030175293857939
1.2033184539492188
1.2057216340645183
1.2026293777855874
1.2041015625000004
1.211655764697558
1.210774424207753
1.202804564793806
1.2030735037632894
1.2065802901495777
1.2009197998362047
1.1953125000000009
1.1957981890804104
1.1924304072696696
1.1851029242558606
1.1789409273716662
1.1726517753202927
1.1665894266198675
1.1601562500000007
1.1535306708028523
1.1481662376078148
1.1410003896760041
1.1346310214659825
1.129991940565887
1.1211086661126006
1.1162109375000007
1.117508635181086
1.1117393309918702
1.1073981460113567
1.1084127269178599
1.0976499938858904
1.0877023307114728
1.0898437500000009
1.080221464206205
1.0615903773552586
1.0538057744904206
1.0476486471032929
1.0397701338402723
1.0353886623140802
1.0283203125000004
1.0257955266320467
1.0336933285445025
1.0367353002159516
1.0299843976817944
1.0226411354574843
1.0176414678531043
1.0107421875000002
0.9982822958358386
0.9876771423985091
0.9836703433562799
0.9771792856536431
0.9725267683469959
0.9791199447399574
0.9843750000000004
0.9834974044052601
0.987973164084017
0.9938699600114106
0.9935453889243414
0.9925730016149366
0.993576654544659
0.9931640625000008
0.9923384136875311
0.9963072250642828
1.0029846406091463
1.0027938060265125
0.999823111058204
1.0048586058285685
1.0107421875
1.0108654936213815
1.0110508993489649
1.0104033613961394
1.010035525869254
1.0159765144199375
1.020383317167321
1.0195312500000007
1.0244437360904204
1.0336842383522609
1.0373241343103352
1.0371410158161352
1.037140618762073
1.0370686653470658
1.0371093750000007
1.0371031468367404
1.037201193404913
1.036987903651006
1.0367568356506478
1.0410134048238975
1.0491315419973561
1.0546875
1.06015487089136
1.0686216076071442
1.07238287949567
1.0718522379950977
1.0768452342564345
1.0825944696238583
1.0810546875000009
1.0800751176877594
1.082298444138184
1.0804027665354052
1.0800986652870475
1.0867390018829415
1.0904516416413532
1.0898437500000004
1.0904713347450234
1.0867066972387573
1.0801195718808123
1.0804348392453058
1.082183452961342
1.0802298426403303
1.0810546875000004
1.0819743026733055
1.0795717256651056
1.0822131204571963
1.0889670543330567
1.0906790254081096
1.0894687822972904
1.08984375
1.0900104645438575
1.0896840028823584
1.0899070005559066
1.089914054068166
1.0896133027218566
1.0901976877086725
1.0898437500000007
1.084103704690708
1.0783475809298197
1.0826294507981105
1.0894050570264737
1.0893039558245214
1.091813932327943
1.0986328125
1.0994735013346753
1.0980740335156047
1.0986882827754156
1.0983511367745116
1.1027644689773923
1.109413636294021
1.1074218750000007
1.105471630126235
1.1119703166055364
1.1165722479648772
1.11627766750851
1.1163454479430268
1.1159390869754018
1.1162109375000007
1.117101516430932
1.1129475580637078
1.10642336398596
1.106469551208839
1.1125146012452574
1.1184463469720003
1.1250000000000009
1.1322733088330235
1.133988942976185
1.134353105876058
1.1411639318897306
1.144580009194126
1.1412601104253461
1.1425781250000002
1.143807217054159
1.1409245433087356
1.1434451557739593
1.1437787304762999
1.1362759161849938
1.1337389351692349
1.1337890625000009
1.1324266043223767
1.1380246900631916
1.1428880153555219
1.142266808352212
1.1468923400905635
1.1538984980490337
1.1601562500000009
1.1678004375693976
1.1668665323037
1.1585616009674196
1.1525554738920374
1.1457642448362737
1.1419871990783406
1.1425781250000007
1.1367514846542917
1.131987869137759
1.1340178393337184
1.1276432813022172
1.1138732561545317
1.1041519256680803
1.0986328125000004
1.0983161413585136
1.0969444353910967
1.0878134733708824
1.0815549696172473
1.0778891410041307
1.067873057430381
1.0634765625000007
1.069959433405055
1.073357800079919
1.072026475220869
1.072143010474058
1.0723895267932029
1.0722476069806788
1.0722656250000004
1.0721657905038473
1.072463941646472
1.0721344491879685
1.0720638579264543
1.0730703146985598
1.0705623940719393
1.063476562500001
1.0566350810469425
1.0531037657226268
1.055790492871242
1.0625463446588899
1.0641934164685187
1.0641693508101242
1.0722656250000007
1.0800009162306234
1.0826650334616443
1.0926005601381708
1.1057317418421742
1.11177974496195
1.1208833780006915
1.1337890625000004
1.1402572696076456
1.148482239072633
1.1631367669576331
1.1755670025651255
1.1870927603809958
1.2014176871101327
1.2216796875000004
1.2525358202366754
1.282607761764962
1.3054801980948978
1.3368906462362076
1.3766236214346634
1.409736634354049
1.4414062500000004
1.479333389780679
1.5129273865701498
1.5318782760833336
1.5379610237648427
1.5352734100239191
1.5233849671318034
1.5029296875000002
1.4741192996065275
1.4316177229845297
1.3774028939323022
1.3208808026497234
1.264039704196871
1.2091359038530387
1.1601562500000002
1.1150588993520099
1.0772580040732138
1.049632850793388
1.0244936584028612
1.0021201920882579
0.9892021367288807
0.9843750000000004
0.9841300169274022
0.9842898106844696
0.9848512276952243
0.9913731862726917
0.9992119859180604
1.0036736788427867
1.0107421875
1.0181575352438905
1.0200010006829558
1.0194225773446042
1.0193957292678166
1.020208265949178
1.0177805615294844
1.0107421875000002
1.0093261734117027
1.0122510248052725
1.0101050782902334
1.0100953639574448
1.012313067549076
1.0092562906495752
1.0107421875000009
1.0176422933074676
1.0220498772614626
1.0303694327752004
1.0370973052226724
1.035266461801164
1.0412558649345935
1.0546875
1.0611587232061204
1.0696238208394369
1.0835839515147596
1.0897382004519465
1.0894457848529313
1.0903549755486102
1.0898437500000004
1.0843385844113334
1.076208057892504
1.0719008535693808
1.0721619755819052
1.072183817920394
1.072623438771682
1.0722656250000002
1.0663216071553787
1.0611654330495097
1.0647923328329003
1.0714408726235274
1.073143674430511
1.0717455248235515
1.0722656250000002
1.0728719700562115
1.071157107029868
1.073265070175582
1.080026340133485
1.0822147605553845
1.0804328792273654
1.0810546875000002
1.0814239051308283
1.0807074684996671
1.0811330824135588
1.080925713099377
1.084333604459194
1.0938031835421476
1.0986328125000004
1.097769731576258
1.102145604385077
1.108179672880778
1.1078590091276526
1.106718001665192
1.107888910976295
1.1074218750000002
1.1069209676817469
1.1083194266238812
1.1065644485387502
1.0998710183438403
1.096766169203867
1.100160124950611
1.0986328125000004
1.0913338015682053
1.0899229145088825
1.0890768875697119
1.0821722911343115
1.0801132999686152
1.080432559102012
1.0722656250000007
1.0644869253577907
1.0631724124733548
1.0638513271616334
1.0701115519559907
1.0822354936066685
1.0948402037714953
1.1074218750000002
1.1195707015014016
1.1351234367584322
1.155210356084125
1.1677676037979507
1.1728518398162586
1.1816974044421227
1.1865234375000004
1.1803377960236632
1.1764367783505023
1.1777381455984988
1.1712832615786453
1.1609334792760317
1.1623592750687424
1.1689453125000007
1.1684616328970845
1.174028928991493
1.1893790516553377
1.1953507226219222
1.1973266758932608
1.2101642982248715
1.2216796875000004
1.2274067069603478
1.2355978607545997
1.2393182779429959
1.2387584014986914
1.2440294554792422
1.2495333516748255
1.2480468750000007
1.242130444741871
1.2350496949306362
1.2294513492834613
1.2232570246699115
1.2155274734261554
1.212423264738627
1.2128906250000009
1.2124594087523581
1.2152823931973324
1.223737146125106
1.236358072132838
1.2505517792873777
1.259600523356737
1.2656250000000004
1.2776264023006687
1.289482886705811
1.2918872271649118
1.2916691800123163
1.2931903006921757
1.2898665202232775
1.2832031250000002
1.2776145941564299
1.267490845101494
1.2546310092057191
1.2486441990401627
1.2443077280263783
1.2357163786840697
1.2304687500000002
1.2258260541573796
1.2135417427732438
1.2025356000385499
1.1968483908797825
1.1859475271752866
1.1735150131642427
1.1689453125
1.1638203174899047
1.15490151326877
1.1508938007074883
1.1449551518324244
1.1313649361163598
1.1225014562953537
1.1162109375
1.103409538036945
1.0939450793420287
1.0885912060057668
1.0818156719114076
1.081090743695718
1.0791632737526544
1.0722656250000002
1.0774224097634353
1.081758388055717
1.0693984148831617
1.063207577103105
1.062184456522305
1.0479063698327225
1.0371093750000002
1.0327931270723616
1.0190454154766282
1.0104696333054757
1.0175426893719552
1.0256053589568161
1.0300706508949782
1.0371093750000004
1.0493582130233816
1.0608628996988712
1.0633322166637733
1.0629372194952351
1.0678669005972419
1.0751942527346892
1.0810546875000009
1.0818445408984423
1.0804187334367346
1.0809580613097336
1.0745481015752893
1.0645875168170535
1.0643985931604174
1.0634765625000004
1.0561954375352443
1.0548208820534666
1.0539001354632882
1.047046490289881
1.044529572125062
1.046772850031108
1.045898437500001
1.040265020701779
1.0323936105450682
1.0278942118918828
1.0281443498387732
1.028375934988104
1.0291010181947111
1.0371093750000004
1.050615320567328
1.0582853394421263
1.0659396907349645
1.0857117281540953
1.099416855192705
1.096926881517256
1.0986328125
1.1010994561926195
1.0932222004713776
1.0899848825125888
1.0905340958074046
1.0848929055514236
1.0787207068656726
1.0722656250000004
1.0706863528433557
1.0728812384933302
1.0596310562927307
1.0459618868983094
1.0519243110007994
1.0530815061815424
1.0458984375000007
1.0508397194647476
1.0591512406487666
1.0647401369104752
1.0714271207698016
1.07288077338185
1.0722505607292336
1.0722656250000004
1.0714294428904143
1.0742532972395387
1.070273886214531
1.0566431111507109
1.0530048072707252
1.0543355454259542
1.0458984375000007
1.0381617260279978
1.036594201992057
1.0376757115757949
1.0441652956259502
1.0518867540737813
1.0563145446054927
1.0634765625
1.0760869238959014
1.0865221097455218
1.0904043305917077
1.0964597503677844
1.109065391956186
1.1198190555370418
1.1250000000000004
1.1255837430235105
1.124507577482863
1.124881325431975
1.118512716047118
1.1083848889258883
1.1085694158740989
1.107421875
1.0994152517525841
1.1014882386886675
1.1085629657622666
1.1144413519353247
1.123621187476066
1.1229133459624
1.1162109375000004
1.1171476634860507
1.110194397273819
1.096396573088968
1.0907299060948081
1.084417324475518
1.0812417693438212
1.0898437500000007
1.1014398815246407
1.1190433824022394
1.1359436527846634
1.1351155144157339
1.1315110118577714
1.1354171316421497
1.1337890625000009
1.127509897101337
1.1209931810504554
1.1155182851216148
1.1158202474127437
1.1166873345378079
1.1161880992726305
1.1162109375000009
1.1106295406431883
1.1034677360299296
1.0968762684227806
1.0837893261246176
1.0739260374912354
1.0711076276958684
1.0634765625000007
1.056058151344886
1.052371283837186
1.043912998926828
1.0373549451325499
1.0378273538326825
1.0351959795313874
1.0283203125000004
1.0265898000556648
1.0324186969689082
1.0376970878468155
1.0374103136929917
1.0367149341063917
1.0372632408221676
1.0371093750000004
1.0375132105010652
1.0346538135560435
1.0265863191190356
1.0201761501800601
1.0188259152591799
1.0200568218958426
1.0195312500000004
1.018350508290743
1.0233640720206156
1.0288687698056704
1.028303896391631
1.0318221768240967
1.0404661809501754
1.0458984375000004
1.0516633358871952
1.0589866589984782
1.0645098683121443
1.070688326170269
1.0805801224749596
1.097408560680821
1.1162109375
1.1289831749366448
1.1421321085368659
1.1522605807670567
1.1454609612545872
1.131281993535037
1.121638014289802
1.1162109375000009
1.1206462836260191
1.1321192255913946
1.1459691237586536
1.1713017189152455
1.2038149102685103
1.2332436294018962
1.2656250000000004
1.3031155179064196
1.3410743194416161
1.3785391510878098
1.4160858809167172
1.4551230617786486
1.4885837500673016
1.5117187500000013
1.5318604599349845
1.5422813906111301
1.5360324157617957
1.5237951057350867
1.5000679284956027
1.4588736912290727
1.4150390625
1.3670109701347146
1.3100506644456558
1.2547809300769286
1.198229439779923
1.1427746532380625
1.1009294978167345
1.0634765625000007
1.0292031439172122
1.0084611115365012
0.9887083469226727
0.9689821086416475
0.96503688790255
0.9672254549088982
0.966796875000001
0.9723103216398701
0.9796139208628181
0.9860627792860721
0.999057295204858
1.0099346059931837
1.0098966836424517
1.0107421875000004
1.0175635125458116
1.0203065974251413
1.0194921236477774
1.0198684247945673
1.0152212695366816
1.0089503545647942
1.0107421875000009
1.0120256436563932
1.009076540655326
1.011611648042862
1.0119715519605788
1.004136694466746
1.0030869605766686
1.0107421875000002
1.0172049151031675
1.0233699516370747
1.029423804381341
1.0355545804968656
1.0433792114798108
1.0460403371541072
1.0458984375
1.0520158690455015
1.05632915820679
1.054199065881879
1.0543240233146522
1.055312787450554
1.0543258909292998
1.0546875000000007
1.0544661481613946
1.0570695584058714
1.0649063660728286
1.064938492424219
1.0568209912648527
1.0549179803889568
1.0546875
1.0482196739211644
1.0446864453474025
1.0461734504620532
1.0459132445748682
1.0487212157360428
1.0598510964218635
1.0722656250000007
1.0836882642231014
1.1013014021542766
1.118923741175509
1.1246664117830867
1.1284756336542585
1.1367389469188234
1.1337890625
1.1207941499433758
1.1098232024982546
1.095352142313599
1.0823420519853661
1.0777385446518335
1.0663701607027127
1.0546875000000007
1.0600809909670534
1.0651501587715366
1.0635795866812865
1.0705021479414156
1.0749210948120074
1.0704086432088156
1.0722656250000004
1.0788360772749355
1.0846027149022694
1.0908002859245096
1.0905830878504565
1.0882952273861835
1.0911264972243513
1.0898437500000004
1.087900790958796
1.0946359270105877
1.0987340092090836
1.09811094358047
1.1036402376212733
1.1083993487940775
1.1074218750000004
1.1122071584839066
1.1217971183936186
1.1250460596463665
1.1246496605580922
1.1289185623346434
1.1371621575813895
1.1425781250000002
1.1425171200549358
1.144756514200553
1.1531736648405353
1.159419091332757
1.1639317887996665
1.172678644987185
1.1777343750000007
1.1772919957546664
1.178990886126396
1.1765305819161642
1.1695081201660276
1.1719570509611001
1.181450859808702
1.1865234375000004
1.1868926588698518
1.186079433014992
1.1867683677531442
1.186852450150854
1.1854827932354302
1.1877843875740084
1.1865234375000002
1.1786912458239842
1.1806804322980757
1.1869282828235919
1.1800150729584604
1.1708353978164816
1.1684987922083228
1.1689453125000007
1.1745834790557867
1.1818670656344603
1.1878151127330732
1.1944464658133958
1.1959940084173055
1.1953908253499401
1.1953125000000002
1.1888913021391747
1.1859063391099072
1.185609727288525
1.1721607437182158
1.1613435715633784
1.1581601188720383
1.1425781250000004
1.1322267900922804
1.1372035128639293
1.131551431357658
1.124423173692416
1.1311565008257078
1.1334193939678199
1.1337890625000004
1.145456445435327
1.1594423824465576
1.171111807150369
1.1776963908668985
1.173998895559625
1.1649482414116081
1.1513671875000002
1.137046320855723
1.131121584498066
1.1221432271102074
1.1024869219285098
1.0870994095745943
1.07663640165626
1.0634765625000007
1.0557793513558233
1.0525049386474246
1.0438846716600318
1.0373271818367265
1.0379388619997463
1.035020793615228
1.0283203125000007
1.0273248225072362
1.029455158395012
1.0274987239353726
1.0210696232975707
1.013831290270397
1.0090073059217226
1.0019531250000004
0.9891658265871213
0.9793750234953
0.9746476294724283
0.9682350091531841
0.9616357631101824
0.955308780026114
0.9492187500000004
0.9486372307565341
0.949338958047417
0.9496889414561136
0.9563215137265731
0.963346182269171
0.9703407548746696
0.9843750000000007
0.9931144019407268
0.9921870187936067
0.9937383154382087
0.9939623166207999
0.9883536203947515
0.9816778400766112
0.9755859375000003
0.9750397557084873
0.9740173849281605
0.9650226164035118
0.9649948547794914
0.9741986098491073
0.9748338893976868
0.9755859375000002
0.9778103451868609
0.9700034309396571
0.9675213639877553
0.9747065819738514
0.975644736699537
0.9772297897302963
0.9843750000000006
0.9855203390015187
0.983171258097429
0.9851808736844369
0.9915556624805638
0.9992647225228641
1.0025198182649535
1.0019531250000004
1.001948062752499
1.0018033750647446
1.0020811741723301
1.0021480519987398
1.0013136101033013
1.002744408803471
1.001953125
0.995487833926383
0.9916476090043079
0.9939985540364492
1.0003276731881168
1.0081898142847607
1.0110418830912926
1.0107421875
1.016111238087943
1.0241754251427075
1.0291974854333714
1.0353901805843206
1.0438343481542554
1.0448397447360995
1.0371093750000004
1.0352120748246483
1.0395420619197357
1.0355568940577193
1.028780254714523
1.0285878257335033
1.0275155121113284
1.0283203125000007
1.0352657043253994
1.0374070587930462
1.0377054613273582
1.0445648160408367
1.047645568537908
1.044820472877172
1.0458984375000004
1.0469302229723931
1.044249034793368
1.0471996480183865
1.0541959200387465
1.051367658158731
1.0433142711424397
1.0458984375000004
1.0534302687280042
1.0548084736693932
1.054819864127721
1.0549201621327153
1.0539776032470358
1.0554295166383392
1.0546875000000007
1.053162779025092
1.0589664095114886
1.0638331682947926
1.0633012842070293
1.0670838856781915
1.0764900002070021
1.0898437500000004
1.1036955667032333
1.111138526266062
1.1178249800321014
1.1245605998832493
1.1243069522382971
1.1273587572189367
1.1337890625
1.1285779699604075
1.122472260702833
1.1258553538582177
1.1257685834268474
1.1231031867682426
1.1275713994163563
1.1337890625000002
1.1349856559292029
1.1305311600489274
1.1236634338222684
1.1174980313855185
1.1107072728891147
1.1063984295830855
1.1074218750000007
1.1079584761686228
1.106702793142267
1.1080440052935894
1.114377224359151
1.1232074273249881
1.1236091088470541
1.1162109375
1.1153739713787976
1.1149735425732745
1.1052250739756981
1.0989568112886128
1.09607111112185
1.0840895377135895
1.072265625000001
1.0666775292941446
1.0563223174009846
1.0438551297168612
1.037929033699034
1.032598751774103
1.0262989333287453
1.0283203125000004
1.0356422419393085
1.0371425320776626
1.0377609874898506
1.04457422370589
1.04770599405905
1.0447185394853176
1.0458984375000002
1.0471087365951748
1.0440115102271756
1.0472799487223032
1.054121538918915
1.0543727683200905
1.0564902742365163
1.0634765625000004
1.0645384464092371
1.0625343426846283
1.0638063456277693
1.0637511279203247
1.0629461503382454
1.0638455988330984
1.0634765625000004
1.0632511696622824
1.063522647219283
1.0638376685680417
1.0702760894657204
1.0791636775134874
1.0809299363883886
1.0810546875000004
1.0863980484516018
1.0963993816739699
1.110286790184744
1.1227404616304384
1.1368381430525243
1.1635407811002951
1.1953125000000004
1.2254835254550953
1.2621739403689423
1.2986296145084033
1.3293539883640675
1.3656358368825734
1.4025393852362344
1.4326171875000002
1.4643223874515643
1.4911115628003622
1.50526313606472
1.51803263743295
1.525191698071224
1.5140618220722823
1.4941406250000007
1.471341656829598
1.4354967542184665
1.387441268254477
1.337295964975091
1.2840876924745181
1.2226113250895205
1.1601562500000002
1.107768455980903
1.0653216146542661
1.031022327169816
1.006160893381715
0.9860238237233527
0.9704701637393005
0.9667968750000006
0.9681685351972288
0.9625391919659378
0.95793831464521
0.9646944753494221
0.9736181467242269
0.9757577716946156
0.9755859375000003
0.9757542509912207
0.9753363748820977
0.9756852296708921
0.9755645072103126
0.9782374684426776
0.9899316571838327
1.0019531250000007
1.0077529286883384
1.0176576802138986
1.0304584822607816
1.036383598692167
1.0412935601021212
1.048912488476692
1.0546875
1.0607020724615999
1.0674050728836988
1.0735660548562258
1.0801184957598053
1.0821024627300886
1.080610709662413
1.0810546875000002
1.0762302930071022
1.066797844248936
1.0630615286704104
1.0571026963133587
1.0433398595270995
1.0353197532080836
1.0371093750000002
1.0428553026982839
1.0506112335821043
1.0550715800619652
1.0547852381221667
1.054826032880475
1.0542486091099428
1.0546875000000007
1.060852095267681
1.0652499388339596
1.0628106436209768
1.0626645585539145
1.0683367236177579
1.0747322612840526
1.0810546875000007
1.0875073994351463
1.0933051879826656
1.100101043105216
1.1066018278303529
1.108385707081546
1.106776215495191
1.1074218750000007
1.1085530639518908
1.1037888645977887
1.097898440867824
1.0982353624701635
1.0990078943584678
1.0993902340373123
1.1074218750000002
1.1155457492295229
1.1155119904711766
1.117085235297422
1.1236712102875797
1.1298823872210422
1.1365748743156532
1.1425781250000002
1.1482422144599995
1.1563010214271778
1.1604023295215593
1.1600593647642021
1.1610122869504587
1.1582311702486934
1.1513671875000004
1.145378736711572
1.137896759320633
1.1335017214055154
1.133949485337815
1.1323092017577454
1.1375001686597808
1.1513671875000004
1.1583262294107326
1.1657338529001193
1.1804576543935257
1.1864049828354852
1.189200063664094
1.1997910194355037
1.2041015625000004
1.2030820637706143
1.2059828334727103
1.2026863619456587
1.1958536070128098
1.1954700566994971
1.1945589875953484
1.1953125000000007
1.2022575251033616
1.2043665793299174
1.204731642016225
1.2116197148129724
1.2143941798229192
1.2121486142380475
1.2128906250000007
1.2127219145685069
1.2154299468218217
1.2228628100674077
1.2224206692557391
1.2228966312608278
1.2370817594347263
1.2480468750000013
1.252744875202894
1.2653898565565818
1.2753970954989573
1.274788100670446
1.2741864927921562
1.274258673688715
1.2744140625000004
1.2754804976815037
1.2707071622041404
1.2649754061105603
1.2653430680425235
1.265807987062395
1.2658274398770684
1.2656250000000007
1.260041545051221
1.2523639324613691
1.247361677315251
1.2474015400826965
1.2500620491482743
1.2448594966244142
1.2392578125000007
1.2455971467544944
1.24720643017022
1.2371487505912497
1.2310908538480074
1.2265658039854768
1.2184458005640273
1.2128906250000004
1.2070556520882423
1.1999761478298205
1.1940895294079796
1.1875321119674591
1.1852921529459497
1.187211319038814
1.1865234375000007
1.1861840205121106
1.1867077442403573
1.1866051474242714
1.186960336006367
1.1818906280616583
1.1764287276894703
1.177734375
1.1730600875034847
1.1637596317106034
1.1590765052886514
1.146321902717677
1.1295830142708077
1.123433145810049
1.1162109375
1.1078327460665667
1.108785193615542
1.1060320000301354
1.0989158685729283
1.102626431352892
1.1093020778675478
1.1074218750000007
1.101231524861542
1.0947779902731833
1.0886408778566614
1.0823798594471983
1.075839585194764
1.0699357873864461
1.0634765625000007
1.0569707525926257
1.0512287566274203
1.0444993252043193
1.038228417729334
1.0322538262765377
1.0264326914532076
1.0283203125000004
1.0356569979908203
1.0370699913150194
1.037812077810443
1.0446415343145559
1.047518401968537
1.0449042262968165
1.0458984375000002
1.0467718416020446
1.0447211002879402
1.046517228244426
1.046709430766802
1.0431049854162788
1.0507452730984852
1.0634765625000002
1.064155159633855
1.0655260460062326
1.0735634815668011
1.0731713670346474
1.0706280419904037
1.0733967812898304
1.0722656250000007
1.0713367095298376
1.0733387965795258
1.0718263794191758
1.071882331347231
1.0728362879176119
1.0727856970454062
1.0810546875000009
1.0894359620357832
1.0889536829424806
1.0905022910670255
1.090871687325797
1.08394621498974
1.0805987006238742
1.0810546875000007
1.080748445732392
1.0816706368643585
1.080678471759185
1.0805454224392275
1.0827378636299916
1.0783841721329739
1.072265625000001
1.0720020216637258
1.0721521871175865
1.072461728769097
1.0726220843112813
1.0708724320695597
1.0747590212670104
1.0810546875000004
1.0810938338581846
1.0833141978930614
1.0915433793706357
1.0977259989639667
1.1029309375565401
1.1106088474035811
1.1162109375000004
1.1167115443325106
1.1157631481167467
1.1163846761517975
1.1163790339155948
1.115824645365354
1.1165375180874326
1.1162109375
1.1158303108505785
1.1167313966344392
1.1159545103833515
1.1159238817302959
1.1169434485467569
1.1155302818372965
1.1162109375000007
1.1172309884265361
1.1144570787354071
1.117567335869658
1.1244327573948834
1.1246674512227857
1.1267661112691187
1.1337890625000004
1.139429275081699
1.1495382310587452
1.1623326079198462
1.1684226772538313
1.1699312901400294
1.1670270782820356
1.1601562500000004
1.1585134665981314
1.1639705322373946
1.1697753330807885
1.1696705119428232
1.166841076663269
1.1721393799537196
1.1777343750000007
1.1717192540140002
1.1677472546497343
1.1686957321109883
1.1618049812541384
1.157751617810763
1.161722760008012
1.1601562500000007
1.1587846067254202
1.1619401889833114
1.1592467278938936
1.1589203329758888
1.1665603184948103
1.1688099124477143
1.1689453125000004
1.1754364256347456
1.178859559388318
1.177525806162416
1.1778209379530191
1.1745724412183092
1.1641954430135164
1.1513671875000009
1.138703317956245
1.1264804091168916
1.1135062814495804
1.1006963245403307
1.0927987766680098
1.0876504475029827
1.0810546875000009
1.0792605063209606
1.0852072681647493
1.0904531481093889
1.090261879761243
1.0887050040633253
1.0918901490668158
1.0986328125000002
1.0998766001495521
1.097216637162215
1.0993337816327502
1.09962161755883
1.092911540141399
1.0892182394635204
1.0898437500000004
1.0896286677425526
1.090609935645106
1.0889606067522528
1.0821799796220704
1.079693098514211
1.0818458134882578
1.081054687500001
1.0804029220321576
1.08196590134371
1.0805021809780946
1.0800294125499126
1.089757191631242
1.1035728473176387
1.1074218750000004
1.105743959897788
1.113742853440813
1.1273652455664833
1.133379550802805
1.1366441755586647
1.1486748056094622
1.1689453125000009
1.1932080613442937
1.2220147788580713
1.25464652587342
1.28606596814444
1.3159490699526686
1.3506015429201912
1.3886718750000007
1.4214356347374655
1.44829418941207
1.4722567174079841
1.4910785129410693
1.504875548766538
1.5155094558371667
1.5205078125000009
1.5166144765872254
1.49996876874241
1.4696999974865783
1.4320553874268847
1.386635825615363
1.3299940098772565
1.2744140625000009
1.2252106187948937
1.1696661278738583
1.115369943613328
1.0783722175522643
1.0472310676393861
1.0176771685413768
1.0019531250000007
0.9903323700126255
0.9769015753143839
0.9767923051171188
0.9837961000746324
0.9840533465524074
0.9860568636576554
0.9931640625000006
0.9994819869638247
1.005881748692435
1.0118479066632802
1.018045990675492
1.0252996199047004
1.0299269040660286
1.0371093750000007
1.0500837972922028
1.0594559724146113
1.0645002624122066
1.0708602401121525
1.0776953252230441
1.0824137909412992
1.0810546875000007
1.0792140295927484
1.0858350630811613
1.089843680991803
1.088957058505004
1.09886024360927
1.1115141320079382
1.1162109375000007
1.1224723095299989
1.1263305914823405
1.1250337912193171
1.1316227932376268
1.1407809919220149
1.1426964005799085
1.1425781250000004
1.1421682499374703
1.1452660529084406
1.152567260489872
1.1523388607207208
1.1490382882458763
1.1543393285165164
1.1601562500000004
1.1605293952487932
1.1597014751505987
1.1607142060713385
1.167186723585329
1.1750043104642864
1.1793818261608588
1.1865234375000004
1.1942127402277718
1.1951288850627
1.195933965595209
1.202451368314908
1.2100892450496927
1.2136686209592078
1.2128906250000009
1.212496729745318
1.213319495747157
1.2127193613905982
1.2127392181020094
1.213170652176878
1.2127451633428732
1.2128906250000004
1.2125027739272096
1.2154300140051288
1.2232348780127429
1.22917942527978
1.2390265586707194
1.2530587325926466
1.256835937500001
1.260812008126078
1.272776248114381
1.273482766593383
1.2725798614267847
1.2859325974510365
1.2928515481486142
1.2919921875000009
1.298418752496681
1.3015339445769623
1.3011847124020852
1.3078921690323946
1.3150199882971039
1.3208560686913426
1.327148437500001
1.3325058433492036
1.3432352501305012
1.355519242322299
1.3615580407619514
1.3640083059125756
1.3594695495316291
1.3535156250000004
1.359083967781438
1.364323216259694
1.361747563310331
1.3619868469221499
1.3623610172136524
1.363628705794501
1.3710937500000007
1.3725341551313561
1.3711432279931568
1.3831706982603766
1.3963857106757531
1.3976228578060381
1.3988139888816102
1.4062500000000013
1.41301153372806
1.4182771997936916
1.4253246397410142
1.4316417271992679
1.4368226025767301
1.44487940150454
1.4501953125000009
1.4495623778288165
1.4535801197709712
1.4596884909233976
1.4591053926053432
1.4621859348025594
1.4713847665630926
1.476562500000001
1.4819553790559248
1.4903502488454956
1.4944910494569585
1.4943246271735287
1.4936898374333991
1.4947492342986544
1.4941406250000002
1.4876754480132364
1.4843355114482035
1.4851355687717278
1.4783681396953996
1.4733206941304553
1.4800531135991615
1.4853515625000004
1.4852300532208347
1.4857483380761851
1.4851179930619176
1.4850639333604267
1.4862429160631576
1.4837746196482944
1.4765625000000004
1.4643223330029684
1.4528424271337101
1.4502757353646738
1.450511519569807
1.4489955905926528
1.4523486039858762
1.4589843750000009
1.4605158903575608
1.45515629465127
1.4494709410135447
1.449737011289495
1.450991221634301
1.4497092215356957
1.4501953125000007
1.4460854500137763
1.4328489565948344
1.4223828425223897
1.416623525292445
1.4058908716327916
1.3920509111157215
1.3798828125000002
1.367227127842887
1.3565620612512013
1.353447801341855
1.3537155760685575
1.3524720183151155
1.3556825014727267
1.3623046875000009
1.3629968135947916
1.3621208850585862
1.361819918742352
1.355042413034102
1.3511850327300239
1.3552331468073362
1.3535156250000007
1.3468941733295405
1.341361649759439
1.3348338693546897
1.3349516955718363
1.33849077277667
1.3326280529289594
1.3271484375000009
1.3276200475399693
1.3257972127759794
1.328382697366922
1.335280305142992
1.3357439523121422
1.3376897098272058
1.3447265625000004
1.3457851358367965
1.3438027306678886
1.3450477731543413
1.3449998456030219
1.3441561911158695
1.3452005331150327
1.3447265625000004
1.3438310657048766
1.347794750358294
1.354927197298425
1.3611293306181038
1.3672927456392152
1.3734473039556474
1.3798828125000007
1.3914246745396346
1.406291283710636
1.4166053102572251
1.4226760420087408
1.4287527125735577
1.4351803573609212
1.4414062499999998
1.4475353459633202
1.4544002668395888
1.4596417325399644
1.4594412366028684
1.45789086556024
1.4607414934371252
1.4677734375
1.4750741115250243
1.4768024410258893
1.4770819621806903
1.4838504409906879
1.4878062251882351
1.4827229849723862
1.4765625000000004
1.4701066169258343
1.4662596318662386
1.4682092912458917
1.4678881473751921
1.4709285907544576
1.4794379585328692
1.4765625000000004
1.4733609816357889
1.4831802302407326
1.4841991081025208
1.4770131527436952
1.477542461527588
1.4739414163910873
1.4677734375000007
1.4686970378060717
1.462188328489336
1.4472756115549663
1.4349874787768504
1.4223001838211782
1.411348344110352
1.4062500000000004
1.4053736984679754
1.4077646337202283
1.4049868043742948
1.398087596593256
1.3977949516961827
1.3954759078058625
1.3886718750000009
1.3886123295370647
1.3858433900604785
1.3792805692958694
1.3861199234863013
1.3962453918001294
1.3978388652012872
1.4062500000000009
1.4206860091026052
1.4247163519322794
1.424143453731708
1.4307263447426777
1.4390811733467905
1.4418254668723816
1.4414062500000007
1.4413526218731076
1.4414333949016644
1.441378934954727
1.4412511333495925
1.4443837662328616
1.4554597421743483
1.4677734375
1.473981004462472
1.4828276048196598
1.4966857261171034
1.5028977145215543
1.5022391855300898
1.5037918829857362
1.5029296875000004
1.4966690098639046
1.4908692505576724
1.4834018394217063
1.4705694248158896
1.4573692918195804
1.4452584032398932
1.4326171875000002
1.4247672518433419
1.4237914803797032
1.4236789015755684
1.4234361594501308
1.4277647483615745
1.435971651045129
1.4414062500000007
1.441658788637531
1.4415233110874937
1.4409277270540775
1.4344534021921687
1.4261629683124666
1.4234495969445886
1.4238281250000004
1.4237535316021885
1.424138767344898
1.4233586768712647
1.4170993246885843
1.4051729083169688
1.3925619552337352
1.3798828125000007
1.366392698450884
1.3583548174580566
1.35160614828357
1.3382856038215682
1.332749071395124
1.3380303233679878
1.3359375000000004
1.33386300569066
1.3389718216498983
1.3339821975665196
1.327022626235419
1.3295763185060516
1.3222499002076387
1.3095703125000002
1.309538653024659
1.3048344246662207
1.2889998166583412
1.2828650138766378
1.2848590510519284
1.2806354370331605
1.2744140625000004
1.2737818187222307
1.274938284406254
1.2742390942706303
1.2742946259304966
1.2744083797291934
1.2753844433720969
1.283203125
1.2909890286563617
1.2932396010574578
1.3041057572494046
1.323698013212279
1.3378416182896284
1.3497567447470853
1.3623046875000007
1.3737602709575467
1.3913187090161843
1.4091833933793276
1.4209561992927342
1.4410764298050431
1.4715838173509128
1.5029296875000004
1.5395227793796866
1.579189673428383
1.615878129187709
1.6597805805473143
1.711434359033588
1.7579549234043563
1.8017578125000009
1.8469435737497637
1.8843354075336716
1.9123032186255293
1.9316754183387232
1.9326165523212326
1.9181559007728717
1.8984375000000007
1.864424732786661
1.8153726242277632
1.765334332443466
1.7089981219851271
1.6444117439443025
1.5860629448366812
1.5292968750000009
1.4705349610613596
1.4249724508297374
1.3909241533686645
1.359320937721913
1.3325517530731066
1.309498504233364
1.2919921875000002
1.2799228113715224
1.2653254113800991
1.256038143543485
1.2568524603460378
1.2529294349033753
1.2459498557011786
1.2480468750000004
1.25459087484363
1.260015419463317
1.267542263963555
1.280409639996732
1.291231986961494
1.2908587644209422
1.2919921875000009
1.3000655806151564
1.2974056155817026
1.2918527490539742
1.2988865993361636
1.3062605973691235
1.312543525903076
1.3183593750000002
1.312303642398605
1.31031775479128
1.3200986807206756
1.3196570546204516
1.3158656696089195
1.320215976724979
1.3183593750000009
1.3162116500670218
